Time (s),Surge Velocity,Sway Velocity,Yaw Rate,Position X,Position Y,Yaw Angle,Speed U,Rudder Angle (deg),Rudder Angle (rad)
0,0,0,0,0,0,0,7.7175,0,0
1,0,-0.000881109093038606,0.00467568124486468,7.7175,0,0,7.71750005029823,0,0
2,-5.05061946273619e-08,-0.00194062972400084,0.00893315986668464,15.435,-0.000881109093038606,0.00467568124486468,7.71750019348757,0,0
3,-2.78632950096638e-07,-0.00315310473839392,0.0128247452746449,23.1525000821634,-0.00219194425960544,0.0136088411115493,7.71750036549205,0,0
4,-8.39532020045812e-07,-0.00449637621971385,0.0163960195595167,30.8700003347604,-0.00351199545570486,0.0264335863861942,7.71750047030922,0,0
5,-1.90513560301529e-06,-0.00595115988821997,0.0196867033367701,38.5875007483234,-0.00444787904127373,0.0428296059457109,7.71750038940975,0,0
6,-3.6560903363542e-06,-0.00750067436189825,0.0227314102240254,46.3050011355825,-0.00463007183311137,0.062516309282481,7.71749998888078,0,0
7,-6.27604792635639e-06,-0.00913031821971858,0.0255603042743371,54.022501069626,-0.00371006403465275,0.0852477195065063,7.71749912484287,0,0
8,-9.9476885145021e-06,-0.0108273887102223,0.0281996728380958,61.7399998360119,-0.00135787722244622,0.110808023780843,7.71749764754567,0,0
9,-1.48500112457183e-05,-0.0125808367382528,0.030672425720993,69.4574963955485,0.00274009952320731,0.139007696618939,7.71749540445279,0,0
10,-2.11565455607553e-05,-0.014381053452539,0.0329985301092313,77.1749893552194,0.00888299623494717,0.169680122339932,7.71749224255297,22,0.383972435438752
11,-2.90342261149153e-05,-0.0162196843589209,0.0351953895174194,84.892476945317,0.0173571070645734,0.202678652449164,7.71748801007968,22,0.383972435438752
12,-0.000349878090447976,-0.0235775738784306,0.0559458942610391,92.6099570013003,0.0284373247441585,0.237874041966583,7.71718613913638,22,0.383972435438752
13,-0.00162143225673303,-0.0370042944142834,0.0934229199979131,100.327138501398,0.0368990402578293,0.293819936227622,7.71596730099117,22,0.383972435438752
14,-0.00447668816450179,-0.056855675808664,0.145708104944202,108.04310537638,0.0394630510394428,0.387242856225535,7.7132328615691,22,0.383972435438752
15,-0.00954951552556106,-0.0832871294795689,0.21076518567445,115.756336790689,0.0347380010077509,0.532950961169738,7.70840044477755,22,0.383972435438752
16,-0.0157118105991673,-0.113496466947658,0.277077948580086,123.464728526664,0.0231508616029791,0.743716146844188,7.70262440746034,22,0.383972435438752
17,-0.0219654837340489,-0.14544970572553,0.33817263800295,131.167341071765,0.00963263490064933,1.02079409542427,7.69690893202825,22,0.383972435438752
18,-0.0283801301012748,-0.178811661851506,0.394616423772298,138.864245497774,0.0013040797394596,1.35896673342722,7.69119873518332,22,0.383972435438752
19,-0.035024590077002,-0.213275660017848,0.446874498783201,146.555443392544,0.00489957149766082,1.75358315719952,7.68543524670058,22,0.383972435438752
20,-0.0419652763603582,-0.248558056040793,0.495323611978101,154.24084739156,0.0268153909902121,2.20045765598272,7.67955821652656,22,0.383972435438752
21,-0.0492648064735008,-0.284394110970322,0.540264831937034,161.920265833869,0.0731488447821911,2.69578126796082,7.67350708565471,22,0.383972435438752
22,-0.0569808502910611,-0.320535063973852,0.581935578314435,169.593390784122,0.149728812162042,3.23604609989786,7.66722220692045,22,0.383972435438752
23,-0.0651651410795079,-0.356746259393404,0.620520948343013,177.259788925375,0.262138376195676,3.81798167821229,7.66064597058505,22,0.383972435438752
24,-0.0738626271310979,-0.392806184786368,0.656164341888385,184.918895023529,0.415730250507826,4.43850262655531,7.65372386402362,22,0.383972435438752
25,-0.0831107612586169,-0.428506272467123,0.688977356792199,192.570007803441,0.615635767681389,5.09466696844369,7.64640547408741,22,0.383972435438752
26,-0.0929389384104667,-0.463651309449019,0.719048893214499,200.212288166607,0.866768252483098,5.78364432523589,7.63864542433154,22,0.383972435438752
27,-0.103368098371497,-0.498060292804742,0.74645337811721,207.844759727143,1.17382166195707,6.50269321845039,7.63040422721271,22,0.383972435438752
28,-0.114410511716937,-0.53156756254802,0.771258004791826,215.466311652337,1.54126542940249,7.2491465965676,7.62164902369518,22,0.383972435438752
29,-0.126069763723266,-0.564024045079335,0.793528881626621,223.075703772404,1.97333649237153,8.02040460135943,7.6123541796007,22,0.383972435438752
30,-0.138340943811542,-0.59529844910385,0.813336001009076,230.671573877982,2.47402950697595,8.81393348298605,7.60250170947097,22,0.383972435438752
31,-0.151211038498614,-0.62527827360628,0.830756972558969,238.252447061153,3.04708624342334,9.62726948399512,7.59208150432948,22,0.383972435438752
32,-0.164659515097224,-0.653870513471062,0.845879511346131,245.816746884901,3.69598511445398,10.4580264565541,7.58109134879493,22,0.383972435438752
33,-0.1786590729073,-0.681001980867238,0.858802725809668,253.362808095764,4.42393170637317,11.3039059679002,7.56953672439424,22,0.383972435438752
34,-0.193176529632128,-0.706619196753134,0.869637305010812,260.88889053336,5.23385106313306,12.1627086937099,7.55743040827693,22,0.383972435438752
35,-0.208173804224887,-0.730687843426851,0.878504753812084,268.393193845501,6.12838232325617,13.0323459987207,7.54479188838805,22,0.383972435438752
36,-0.223608953935909,-0.753191802598415,0.885535861842322,275.873872593643,7.10987613688303,13.9108507525328,7.53164662618879,22,0.383972435438752
37,-0.239437223171046,-0.774131831168559,0.890868613880799,283.329051332912,8.18039510790774,14.7963866143751,7.51802520521335,22,0.383972435438752
38,-0.255612064655271,-0.793523946867682,0.894645754160239,290.756839273468,9.3417173269147,15.6872552282559,7.50396240754814,22,0.383972435438752
39,-0.272086098758774,-0.811397607336828,0.897012205990319,298.155344172783,10.5953428964975,16.5819009824161,7.48949626062982,22,0.383972435438752
40,-0.288811983909552,-0.827793769389166,0.898112523893446,305.522685166937,11.9425032113245,17.4789131884065,7.47466709392769,22,0.383972435438752
41,-0.305743178935873,-0.842762911209085,0.898088522180218,312.857004317442,13.3841726476291,18.3770257122999,7.45951663977635,22,0.383972435438752
42,-0.32283458615134,-0.856363090819442,0.897077186045426,320.156476722531,14.9210822436853,19.2751142344801,7.44408720570141,22,0.383972435438752
43,-0.340043071352554,-0.868658101197745,0.895208933024096,327.419319112696,16.5537349139462,20.1721914205256,7.42842093791303,22,0.383972435438752
44,-0.357327863174936,-0.879715767809702,0.892606257408947,334.643796915063,18.2824217317154,21.0674003535497,7.41255918801523,22,0.383972435438752
45,-0.374650839181629,-0.8896064196422,0.889382760341493,341.828229826661,20.1072388333922,21.9600066109586,7.39654198801032,22,0.383972435438752
46,-0.391976709565522,-0.898401551257305,0.885642545002415,348.970995981003,22.0281045353055,22.8493893713001,7.38040763278015,-22,-0.383972435438752
47,-0.409273111495127,-0.906172681733672,0.881479939932811,356.070534824982,24.0447763055325,23.7350319163025,7.36419236461039,-22,-0.383972435438752
48,-0.42487678380694,-0.908765079294905,0.862943781557988,363.125348844378,26.1568672919072,24.6165118562353,7.34902764607019,-22,-0.383972435438752
49,-0.439035437493633,-0.906107300592001,0.831560923838203,370.133729611704,28.3683840480918,25.4794556377933,7.33464905962427,-22,-0.383972435438752
50,-0.451989390876311,-0.8982440876974,0.788889201018568,377.094083723476,30.6815090915285,26.3110165616315,7.32082555811653,-22,-0.383972435438752
51,-0.463985012180803,-0.885306024026976,0.736468010107304,384.00503721576,33.0967127433698,27.0999057626501,7.30734195413737,-22,-0.383972435438752
52,-0.475284684977467,-0.867485130985376,0.675785460064615,390.865509925445,35.6128925132516,27.8363737727574,7.29398472178463,-22,-0.383972435438752
53,-0.486173489638021,-0.845017606151167,0.608262820240229,397.674760779236,38.2275274651662,28.512159232822,7.28053142663153,-22,-0.383972435438752
54,-0.496962963536629,-0.818173870275329,0.535254628255644,404.432407003417,40.9368364846355,29.1204220530622,7.26674367078821,-22,-0.383972435438752
55,-0.507992338287334,-0.787255405569145,0.458061563559852,411.13842134036,43.7359319259635,29.6556766813179,7.25236318711987,-22,-0.383972435438752
56,-0.5191281435877,-0.753342603343473,0.38047926731499,417.793111682664,46.6189630125006,30.1137382448777,7.23768488269564,-22,-0.383972435438752
57,-0.528563205409405,-0.719540308653746,0.31267109253322,424.397893199108,49.5788521288751,30.4942175121927,7.22485643403355,-22,-0.383972435438752
58,-0.536520683749015,-0.68587738059444,0.252913771960502,430.957590716103,52.6068744170904,30.8068886047259,7.21366007804884,-22,-0.383972435438752
59,-0.543189781515348,-0.652373409777155,0.199803046535723,437.476591295278,55.6954862687725,31.0598023766864,7.20390992287088,-22,-0.383972435438752
60,-0.548731864771221,-0.619040639574213,0.152190213428855,443.958895994518,58.8381036433593,31.2596054232222,7.19544633015326,-22,-0.383972435438752
61,-0.553285473595966,-0.585885418213142,0.10913217327948,450.408167862331,62.0289248958193,31.411795636651,7.1881312942665,-22,-0.383972435438752
62,-0.55697041553658,-0.552909352772678,0.0698519790624417,456.827775201086,65.2627883932182,31.5209278099305,7.18184465735366,-22,-0.383972435438752
63,-0.559891107722021,-0.520110266644428,0.0337075732183519,463.220829866239,68.5350574424763,31.5907797889929,7.17648101399883,-22,-0.383972435438752
64,-0.562139307041036,-0.487483021685158,0.000166928262346704,469.590220762689,71.8415267607229,31.6244873622113,7.17194717930727,-22,-0.383972435438752
65,-0.563796343257919,-0.455020242743329,-0.0312117879511106,475.938642894172,75.1783460221251,31.6246542904736,7.16816011468712,-22,-0.383972435438752
66,-0.564934948621597,-0.422712968417372,-0.0607960900329268,482.268622400781,78.5419570096957,31.5934425025225,7.16504522441191,-22,-0.383972435438752
67,-0.565620759569673,-0.390551243693313,-0.0888919252922364,488.582538033896,81.9290416625747,31.5326464124896,7.16253495235093,-22,-0.383972435438752
68,-0.565913551295472,-0.358524665129682,-0.115753942914425,494.882639497211,85.3364788953911,31.4437544871974,7.16056762196968,-22,-0.383972435438752
69,-0.565868253835905,-0.326622886114519,-0.141593788099103,501.171063045031,88.7613085191875,31.3280005442829,7.15908647401859,-22,-0.383972435438752
70,-0.565535788526064,-0.29483608759931,-0.166586818974894,507.449844685066,92.2007009450709,31.1864067561838,7.15803886555213,-22,-0.383972435438752
71,-0.564963755756133,-0.263155418145188,-0.190877560598882,513.720931288347,95.6519316262792,31.0198199372089,7.1573756013864,-22,-0.383972435438752
72,-0.564196998611257,-0.231573405826636,-0.214584145750458,519.986189866726,99.1123594098585,30.8289423766101,7.15705037511707,-22,-0.383972435438752
73,-0.563278061885346,-0.200084343376146,-0.23780194215085,526.24741524038,102.579408139293,30.6143582308596,7.15701930165521,-22,-0.383972435438752
74,-0.562247561898193,-0.168684646841261,-0.260606526831977,532.506336284134,106.050550984571,30.3765562887088,7.1572405271195,-22,-0.383972435438752
75,-0.561144479321718,-0.137373186929834,-0.283056138075902,538.764620912608,109.523297084135,30.1159497618768,7.15767390503575,-22,-0.383972435438752
76,-0.560006384685145,-0.10615159113612,-0.305193711670036,545.023879939766,112.995180169979,29.8328936238009,7.15828073028529,-22,-0.383972435438752
77,-0.558869604262794,-0.0750245136863285,-0.327048589635198,551.285669928205,116.46374891721,29.5276999121308,7.15902352422637,-22,-0.383972435438752
78,-0.557769332560241,-0.043999869349822,-0.348637974875738,557.551495127089,119.926558816331,29.2006513224956,7.15986586597683,-22,-0.383972435438752
79,-0.556739696533352,-0.0130890262763329,-0.369968193414899,563.822808584664,123.381165412692,28.8520133476199,7.16077226605571,-22,-0.383972435438752
80,-0.555813775943512,0.0176930477044557,-0.391035816245995,570.101012511428,126.825118795111,28.482045154205,7.16170807948617,-22,-0.383972435438752
81,-0.555023583824682,0.0483276913843661,-0.411828684730391,576.387457963094,130.255959245934,28.091009337959,7.16263945609593,-22,-0.383972435438752
82,-0.554400010873253,0.0787925153516207,-0.432326876405026,582.683443908046,133.671213988848,27.6791806532286,7.16353332613893,-22,-0.383972435438752
83,-0.553972737631704,0.109061432164301,-0.452503641625222,588.990215741945,137.068394989301,27.2468537768236,7.16435741952337,-22,-0.383972435438752
84,-0.553770118582771,0.139104757085196,-0.472326335353788,595.308963312139,140.444997775957,26.7943501351984,7.16508031688088,-22,-0.383972435438752
85,-0.553819042659791,0.16888938391873,-0.491757362394138,601.640818516288,143.798501260529,26.3220237998446,7.16567153046797,-22,-0.383972435438752
86,-0.554144775163943,0.198379038985616,-0.510755148320448,607.986852542895,147.126368537886,25.8302664374504,7.16610161247347,-22,-0.383972435438752
87,-0.554770786607456,0.227534614289269,-0.529275142238348,614.348072825754,150.426048648631,25.31951128913,7.16634228774252,-22,-0.383972435438752
88,-0.555718574515942,0.256314578512464,-0.547270851361486,620.725419789378,153.694979282743,24.7902361468916,7.16636660725409,-22,-0.383972435438752
89,-0.55700748466193,0.28467546171632,-0.56469490134439,627.119763467702,156.930590395508,24.2429652955302,7.16614911795142,-22,-0.383972435438752
90,-0.558654538504654,0.31257240662143,-0.581500110578224,633.53190008326,160.130308696255,23.6782703941858,7.16566604377804,-22,-0.383972435438752
91,-0.560674273721282,0.339959776295967,-0.597640561499605,639.962548678094,163.291562956942,23.0967702836075,7.16489547207942,-22,-0.383972435438752
92,-0.563078604584142,0.366791805150811,-0.613072647682947,646.412347890224,166.411790071918,22.4991297221079,7.16381753895994,-22,-0.383972435438752
93,-0.565876708533201,0.393023277556401,-0.627756072383981,652.88185297012,169.488441783228,21.886057074425,7.16241460680346,-22,-0.383972435438752
94,-0.569074944597527,0.418610216357755,-0.64165477254005,659.371533129786,172.518991968423,21.258301002041,7.16067142703427,-22,-0.383972435438752
95,-0.572676808340572,0.443510562258751,-0.654737742202471,665.881769312387,175.500944371247,20.6166462295009,7.15857528136077,-22,-0.383972435438752
96,-0.576682926771825,0.467684824617758,-0.6669797310625,672.412852462723,178.431840640702,19.9619084872985,7.15611609523523,-22,-0.383972435438752
97,-0.581091095234975,0.491096684727319,-0.678361797091562,678.964982368181,181.309268532149,19.294928756236,7.15328651808102,-22,-0.383972435438752
98,-0.585896356722833,0.513713534151224,-0.688871697166637,685.538267126293,184.130870116097,18.6165669591444,7.15008196596195,-22,-0.383972435438752
99,-0.591091122468484,0.535506933095592,-0.69850410558117,692.132723279161,186.894349837006,17.9276952619778,7.14650062374261,-22,-0.383972435438752
100,-0.596665331113743,0.556452976955052,-0.707260657132404,698.748276637318,189.597482266342,17.2291911563966,7.14254340534061,-22,-0.383972435438752
101,-0.60260664235098,0.576532562897508,-0.715149818541912,705.384763796841,192.238119401327,16.5219304992642,7.13821387230723,-22,-0.383972435438752
102,-0.608900659753636,0.595731552385905,-0.722186598801425,712.041934334624,194.814197373299,15.8067806807223,7.13351811259067,-22,-0.383972435438752
103,-0.615531176617343,0.61404082961919,-0.728392115165221,718.719453648484,197.323742446751,15.0845940819209,7.1284645828354,-22,-0.383972435438752
104,-0.622480438067798,0.6314562597512,-0.73379303653412,725.41690639211,199.76487621114,14.3562019667556,7.12306391886101,-22,-0.383972435438752
105,-0.629729412468082,0.647978554189928,-0.738420929607074,732.133800440477,202.135819891447,13.6224089302215,7.11732871997441,-22,-0.383972435438752
106,-0.637258065266548,0.663613053114336,-0.742311535259815,738.86957130988,204.434897728989,12.8839880006144,7.11127331345251,-22,-0.383972435438752
107,-0.645045628833601,0.678369437456315,-0.745504003128312,745.6235869485,206.660539409918,12.1416764653546,7.10491350587081,-22,-0.383972435438752
108,-0.65307086249111,0.692261383930947,-0.748040111435835,752.395152808685,208.811281543948,11.3961724622263,7.09826632795407,-22,-0.383972435438752
109,-0.661312297779527,0.705306177270061,-0.749963496915933,759.183517110711,210.885768219139,10.6481323507905,7.09134977932007,-22,-0.383972435438752
110,-0.669748464967892,0.717524293685661,-0.75131891652912,765.98787620966,212.882750679055,9.89816885387455,7.08418257892727,-22,-0.383972435438752
111,-0.678358097824486,0.72893896886405,-0.752151558863361,772.807379981581,214.80108618577,9.14684993734543,7.0767839262826,-22,-0.383972435438752
112,-0.687120314670891,0.739575762595953,-0.752506418964202,779.641137152025,216.639736145579,8.39469837848207,7.06917327758399,-22,-0.383972435438752
113,-0.696014774689263,0.749462130620179,-0.752427746151051,786.488220498606,218.397763583783,7.64219195951787,7.06137014002883,-22,-0.383972435438752
114,-0.705021809303325,0.758627012533375,-0.751958570387303,793.347671869033,220.074330060615,6.88976421336682,7.05339388657275,-22,-0.383972435438752
115,-0.714122529182062,0.767100442818719,-0.751140309172096,800.218506966345,221.668692122596,6.13780564297952,7.0452635925232,-22,-0.383972435438752
116,-0.723298908007503,0.774913190275155,-0.75001245383778,807.099719863563,223.180197382692,5.38666533380742,7.0369978945351,-22,-0.383972435438752
117,-0.732533844601098,0.782096429466705,-0.748612331638233,813.990287220053,224.608280319138,4.63665287996964,7.02861487186862,-22,-0.383972435438752
118,-0.741811205322289,0.788681446315759,-0.746974938116503,820.889172181363,225.952457877225,3.88804054833141,7.02013194918407,-22,-0.383972435438752
119,-0.751115848849522,0.794699378670228,-0.745132832922333,827.795327952827,227.212324951257,3.14106561021491,7.01156581969102,-22,-0.383972435438752
120,-0.760433635544065,0.800180991598278,-0.743116091457452,834.70770104473,228.387549815778,2.39593277729257,7.00293238713322,-22,-0.383972435438752
121,-0.769751423598236,0.8051564863066,-0.740952304386754,841.625234193179,229.477869566526,1.65281668583512,6.99424672486854,-22,-0.383972435438752
122,-0.779057054100751,0.809655340927679,-0.738666617084885,848.546868966022,230.483085622758,0.911864381448366,6.98552305017969,-22,-0.383972435438752
123,-0.788339327030257,0.813706180959322,-0.736281801407074,855.471548067269,231.403059333981,0.173197764363481,6.97677471191108,-22,-0.383972435438752
124,-0.797587970030161,0.817336676841878,-0.73381835270131,862.398217356522,232.237707725874,-0.563084037043593,6.96801418955445,-22,-0.383972435438752
125,-0.806793601637304,0.820573465999252,-0.73129460564553,869.325827602059,232.986999412576,-1.2969023897449,6.95925310198394,-22,-0.383972435438752
126,-0.815947690445772,0.823442096623061,-0.728726863237873,876.25333598756,233.650950695637,-2.02819699539043,6.95050222415649,-22,-0.383972435438752
127,-0.825042511494266,0.825966990520503,-0.726129534041342,883.179707393081,234.229621863736,-2.75692385862831,6.94177151023341,-22,-0.383972435438752
128,-0.834071100978162,0.828171422453612,-0.723515273548245,890.103915470967,234.723113702,-3.48305339266965,6.93307012173235,-22,-0.383972435438752
129,-0.843027210210646,0.830077513551249,-0.72089512625689,897.024943537023,235.131564215181,-4.20656866621789,6.92440645947778,-22,-0.383972435438752
130,-0.851905259594546,0.831706236559152,-0.718278665724139,903.941785296526,235.455145565158,-4.92746379247478,6.91578819827606,-22,-0.383972435438752
131,-0.860700293219506,0.833077430894437,-0.715674130461267,910.853445423674,235.69406122015,-5.64574245819892,6.90722232339243,-22,-0.383972435438752
132,-0.869407934568973,0.834209825678645,-0.713088554071548,917.758940011937,235.84854331053,-6.36141658866019,6.89871516804964,-22,-0.383972435438752
133,-0.878024343707904,0.835121069129827,-0.710527888485254,924.657296911473,235.918850184263,-7.07450514273174,6.89027245129804,-22,-0.383972435438752
