Time (s),Surge Velocity,Sway Velocity,Yaw Rate,Position X,Position Y,Yaw Angle,Speed U,Rudder Angle (deg),Rudder Angle (rad)
0,0,0,0,0,0,0,7.7175,0,0
1,0,-0.000881109093038606,0.00467568124486468,7.7175,0,0,7.71750005029823,0,0
2,-5.05061946273619e-08,-0.00194062972400084,0.00893315986668464,15.435,-0.000881109093038606,0.00467568124486468,7.71750019348757,0,0
3,-2.78632950096638e-07,-0.00315310473839392,0.0128247452746449,23.1525000821634,-0.00219194425960544,0.0136088411115493,7.71750036549205,0,0
4,-8.39532020045812e-07,-0.00449637621971385,0.0163960195595167,30.8700003347604,-0.00351199545570486,0.0264335863861942,7.71750047030922,0,0
5,-1.90513560301529e-06,-0.00595115988821997,0.0196867033367701,38.5875007483234,-0.00444787904127373,0.0428296059457109,7.71750038940975,0,0
6,-3.6560903363542e-06,-0.00750067436189825,0.0227314102240254,46.3050011355825,-0.00463007183311137,0.062516309282481,7.71749998888078,0,0
7,-6.27604792635639e-06,-0.00913031821971858,0.0255603042743371,54.022501069626,-0.00371006403465275,0.0852477195065063,7.71749912484287,0,0
8,-9.9476885145021e-06,-0.0108273887102223,0.0281996728380958,61.7399998360119,-0.00135787722244622,0.110808023780843,7.71749764754567,0,0
9,-1.48500112457183e-05,-0.0125808367382528,0.030672425720993,69.4574963955485,0.00274009952320731,0.139007696618939,7.71749540445279,0,0
10,-2.11565455607553e-05,-0.014381053452539,0.0329985301092313,77.1749893552194,0.00888299623494717,0.169680122339932,7.71749224255297,14,0.244346095279206
11,-2.90342261149153e-05,-0.0162196843589209,0.0351953895174194,84.892476945317,0.0173571070645734,0.202678652449164,7.71748801007968,14,0.244346095279206
12,-0.000349878090447976,-0.0235775738784306,0.0559458942610391,92.6099570013003,0.0284373247441585,0.237874041966583,7.71718613913638,14,0.244346095279206
13,-0.00162143225673303,-0.0370042944142834,0.0934229199979131,100.327138501398,0.0368990402578293,0.293819936227622,7.71596730099117,14,0.244346095279206
14,-0.00411066362405048,-0.0558246085095022,0.142201728318571,108.04310537638,0.0394630510394428,0.387242856225535,7.71359134524467,14,0.244346095279206
15,-0.00662011507629613,-0.0761214634105774,0.187098466325891,115.756695838287,0.0357715185752993,0.529444584544107,7.71125560962109,14,0.244346095279206
16,-0.00918068639620923,-0.0976571641936499,0.228577829485225,123.46794991234,0.030905071476834,0.716543050869998,7.70893790104678,14,0.244346095279206
17,-0.0118242253107464,-0.120220887308719,0.267036078616814,131.176887711796,0.0296535459334598,0.945120880355222,7.7066135368512,14,0.244346095279206
18,-0.0145826396520366,-0.143624408703341,0.302809477101371,138.883498161123,0.036552002777036,1.21215695897204,7.70425621530887,14,0.244346095279206
19,-0.0174872334523394,-0.167698528389913,0.336181902933825,146.587730052818,0.055911499309453,1.51496643607341,7.70183870263596,14,0.244346095279206
20,-0.02056820096343,-0.192290101602348,0.36739170524976,154.289484929428,0.0918450773955221,1.85114833900723,7.69933338687153,14,0.244346095279206
21,-0.023854231820326,-0.217259597459877,0.396637874315185,161.988611414879,0.14828941482054,2.21854004425699,7.69671273589689,14,0.244346095279206
22,-0.0273721949493403,-0.242479115964046,0.42408559157151,169.684900721876,0.229022567321044,2.61517791857218,7.69394968658439,14,0.244346095279206
23,-0.0311468795157381,-0.26783080263689,0.449871221844617,177.378083140859,0.337678206622376,3.03926351014369,7.69101798409153,14,0.244346095279206
24,-0.0352007790976589,-0.293205607022163,0.474106803593117,185.067825375605,0.477756737400799,3.4891347319883,7.68789248412502,14,0.244346095279206
25,-0.0395539110182319,-0.318502336713658,0.496884085684678,192.753728634898,0.652633654832723,3.96324153558142,7.68454942620597,14,0.244346095279206
26,-0.0442236668541106,-0.343626962769998,0.518278151312858,200.435327421572,0.865565485153196,4.4601256212661,7.68096668228416,14,0.244346095279206
27,-0.0492246929262314,-0.368492135611133,0.538350661925333,208.11208898215,1.11969363470152,4.97840377257896,7.67712398226605,14,0.244346095279206
28,-0.0545688013366112,-0.393016873075982,0.557152746965917,215.783413394001,1.41804645810134,5.51675443450429,7.67300311598863,14,0.244346095279206
29,-0.06026491304984,-0.4171263845527,0.574727559263525,223.448634273987,1.76353984297894,6.07390718147021,7.66858810978335,14,0.244346095279206
30,-0.0663190347951455,-0.440751997242511,0.591112511330896,231.10702009423,2.15897659621613,6.64863474073373,7.66386537495188,14,0.244346095279206
31,-0.0727342713250446,-0.463831152907653,0.606341204830585,238.757776088031,2.60704490430271,7.23974725206463,7.65882382515297,14,0.244346095279206
32,-0.0795108739359273,-0.486307446046872,0.620445064056401,246.400046723195,3.11031612703868,7.84608845689521,7.65345495981741,14,0.244346095279206
33,-0.0866463252524951,-0.508130677433273,0.633454684366262,254.032918712004,3.67124216887115,8.46653352095161,7.64775291119923,14,0.244346095279206
34,-0.0941354592138809,-0.52925690036389,0.645400907873192,261.655424517777,4.29215265494668,9.09998820531788,7.64171445346514,14,0.244346095279206
35,-0.101970614079925,-0.549648440765402,0.65631564104786,269.266546308307,4.97525211916092,9.74538911319107,7.63533897323806,14,0.244346095279206
36,-0.110141815197412,-0.569273876375178,0.666232431840104,276.865220297213,5.72261738901014,10.4017047542389,7.62862840215764,14,0.244346095279206
37,-0.118636983310862,-0.588107964426874,0.675186827093481,284.450341406126,6.53619532708897,11.067937186079,7.62158711320866,14,0.244346095279206
38,-0.127442163436477,-0.606131511444742,0.683216534023262,292.020768174297,7.41780106209083,11.7431240131725,7.61422178371143,14,0.244346095279206
39,-0.136541768786975,-0.623331182714071,0.690361412017655,299.575327837973,8.36911681382592,12.4263405471958,7.60654122888585,14,0.244346095279206
40,-0.14591883396357,-0.639699252582366,0.696663322742198,307.112821500139,9.39169138790544,13.1167019592134,7.59855621073056,14,0.244346095279206
41,-0.155555271622529,-0.655233299820485,0.702165867308499,314.63202931194,10.4869403872594,13.8133652819556,7.59027922755345,14,0.244346095279206
42,-0.165432127061105,-0.669935854737914,0.706914039040692,322.131715590292,11.6561471604738,14.5155311492641,7.58172428982611,-14,-0.244346095279206
43,-0.175529825619236,-0.683814006549603,0.71095381916154,329.610633801541,12.9004644818917,15.2224451883048,7.57290668810876,-14,-0.244346095279206
44,-0.184785708222405,-0.691849943814222,0.697403344540539,337.067531348283,14.2209169362385,15.9333990074664,7.56441940576448,-14,-0.244346095279206
45,-0.193523204167475,-0.693723222411126,0.668005380955496,344.50077617612,15.623526032081,16.6308023520069,7.55589033360985,-14,-0.244346095279206
46,-0.202050142323576,-0.689289374748192,0.624589651513096,351.908562394138,17.1122107138364,17.2988077329624,7.54699320295105,-14,-0.244346095279206
47,-0.210674497052386,-0.678550646254587,0.569021481433818,359.289029459894,18.6888566146877,17.9233973844755,7.53743060407439,-14,-0.244346095279206
48,-0.219717062746524,-0.661629258141232,0.503160163914448,366.640360498027,20.3534262524711,18.4924188659093,7.52691850954943,-14,-0.244346095279206
49,-0.228719167903624,-0.640650371924507,0.435292550030638,373.960855169295,22.1041004132826,18.9955790298238,7.51613406281588,-14,-0.244346095279206
50,-0.236584489287813,-0.61864448986901,0.375361743839663,381.250353278095,23.9358996850421,19.4308715798544,7.50645175054496,-14,-0.244346095279206
51,-0.243428687542174,-0.595841526770826,0.322165838629971,388.51098642226,25.8411619318501,19.8062333236941,7.49778427995429,-14,-0.244346095279206
52,-0.249356576434221,-0.572425429407505,0.274681792300612,395.744816018888,27.8130844647293,20.128399162324,7.49004920325502,-14,-0.244346095279206
53,-0.254462517673619,-0.548543725426699,0.232040730034149,402.953819583014,29.8455963784948,20.4030809546246,7.48316969480938,-14,-0.244346095279206
54,-0.25883118088913,-0.524314867243627,0.193505702650386,410.139884962982,31.9332488965486,20.6351216846588,7.47707473770254,-14,-0.244346095279206
55,-0.262538466844711,-0.499833942918952,0.158452105618468,417.304809695815,34.0711217192459,20.8286273873092,7.47169896551775,-14,-0.244346095279206
56,-0.265652472736705,-0.475177166740807,0.126350704274631,424.450303529261,36.2547433228003,20.9870794929276,7.46698231612824,-14,-0.244346095279206
57,-0.26823442998046,-0.45040544865989,0.0967530751304293,431.577992782718,38.4800232637357,21.1134301972023,7.46286959559532,-14,-0.244346095279206
58,-0.270339577317543,-0.425567260868587,0.0692792127125581,438.689425657351,40.7431947266256,21.2101832723327,7.45931001197102,-14,-0.244346095279206
59,-0.272017952060519,-0.400700962151823,0.0436070349897501,445.786077909682,43.0407657623447,21.2794624850453,7.45625671414675,-14,-0.244346095279206
60,-0.27331509427384,-0.375836699337793,0.0194635285444202,452.869358511941,45.369477873561,21.323069520035,7.45366635523823,-14,-0.244346095279206
61,-0.274272665575379,-0.350997975408437,-0.00338270478555088,459.940615064899,47.7262707998625,21.3425330485794,7.45149869024122,-14,-0.244346095279206
62,-0.274928987929232,-0.32620295219937,-0.0251277122292771,467.001138824897,50.108252530517,21.3391503437939,7.44971621175865,-14,-0.244346095279206
63,-0.275319509514258,-0.301465539752827,-0.045937450843257,474.052169270714,52.5126737265411,21.3140226315646,7.44828382411848,-14,-0.244346095279206
64,-0.275477205283103,-0.276796312624997,-0.0659522043699873,481.09489817778,54.9369058660448,21.2680851807213,7.44716855427408,-14,-0.244346095279206
65,-0.275432919675434,-0.252203284628101,-0.0852902923117448,488.13047319404,57.3784225394154,21.2021329763514,7.44633929691817,-14,-0.244346095279206
66,-0.275215658432504,-0.227692566791091,-0.104051186507479,495.160000928441,59.8347834160224,21.1168426840396,7.44576659086978,-14,-0.244346095279206
67,-0.274852835773367,-0.20326892817469,-0.12231813244312,502.184549572811,62.3036204840731,21.0127914975321,7.44542242376697,-14,-0.244346095279206
68,-0.274370482454013,-0.178936275168205,-0.140160357087914,509.205151083295,64.7826262322156,20.890473365089,7.4452800622633,-14,-0.244346095279206
69,-0.273793419508204,-0.154698061735957,-0.15763493197983,516.222802949934,67.2695434974666,20.7503130080011,7.44531390518639,-14,-0.244346095279206
70,-0.27314540180068,-0.130557640561583,-0.174788349292603,523.2384695837,69.7621567507857,20.5926780760213,7.4454993574132,-14,-0.244346095279206
71,-0.27244923492852,-0.106518563008608,-0.191657859415316,530.253083349887,72.2582846306134,20.4178897267287,7.44581272251437,-14,-0.244346095279206
72,-0.271726868491751,-0.0825848341668286,-0.208272610889716,537.267545275818,74.7557735672098,20.2262318673134,7.44623111249742,-14,-0.244346095279206
73,-0.270999468320404,-0.0587611279075333,-0.224654627134227,544.282725459665,77.2524923677329,20.0179592564236,7.44673237322636,-14,-0.244346095279206
74,-0.270287469888494,-0.0350529657693112,-0.240819649019683,551.299463205989,79.7463276545485,19.7933046292894,7.44729502430641,-14,-0.244346095279206
75,-0.26961061486045,-0.0114668625989341,-0.256777867861971,558.318566912527,82.2351800679984,19.5524849802697,7.44789821239605,-14,-0.244346095279206
76,-0.268987972495891,0.0119895588511203,-0.272534569600105,565.340813731876,84.716961160348,19.2957071124078,7.44852167704403,-14,-0.244346095279206
77,-0.268437947477406,0.035307482736828,-0.288090707698642,572.366949031114,87.1895909203811,19.0231725428077,7.44914572824759,-14,-0.244346095279206
78,-0.267978275616123,0.0584768431489617,-0.303443419536688,579.397685671956,89.6509958784871,18.735081835109,7.44975123499114,-14,-0.244346095279206
79,-0.267626008824222,0.0814862944578429,-0.318586498627871,586.433703133969,92.0991077504202,18.4316384155723,7.45031962405518,-14,-0.244346095279206
80,-0.267397490714896,0.104323208270763,-0.333510832880081,593.475646503387,94.5318625844514,18.1130519169445,7.45083288838504,-14,-0.244346095279206
81,-0.267308324191264,0.126973696374247,-0.348204817189808,600.524125350362,96.947200381609,17.7795410840644,7.4512736042814,-14,-0.244346095279206
82,-0.267373332408893,0.14942265900861,-0.362654746927581,607.579712517894,99.3430651622715,17.4313362668746,7.45162495662371,-14,-0.244346095279206
83,-0.267606514534104,0.171653857703308,-0.376845197275193,614.64294284614,101.717405454715,17.068681519947,7.45187077126621,-14,-0.244346095279206
84,-0.268020997764376,0.19365001169828,-0.390759391901296,621.714311856369,104.068175182449,16.6918363226718,7.45199555366079,-14,-0.244346095279206
85,-0.268628987119974,0.215392916701151,-0.404379563099097,628.794274419272,106.393334927429,16.3010769307705,7.45198453266573,-14,-0.244346095279206
86,-0.269441714549752,0.236863584397267,-0.417687304257614,635.883243432739,108.690853545674,15.8966973676714,7.45182370840036,-14,-0.244346095279206
87,-0.270469388911539,0.258042400756522,-0.430663914403063,642.981588534414,110.958710110496,15.4790100634138,7.45149990291061,-14,-0.244346095279206
88,-0.271721148381943,0.278909300787193,-0.443290733542517,650.089634874287,113.194896156714,15.0483461490107,7.45100081232503,-14,-0.244346095279206
89,-0.273205016816159,0.299443956994115,-0.455549466684971,657.207661972277,115.397418196909,14.6050554154682,7.45031505911236,-14,-0.244346095279206
90,-0.274927865511001,0.31962597842891,-0.467422493723807,664.335902685033,117.564300478216,14.1495059487832,7.44943224300743,-14,-0.244346095279206
91,-0.276895381721228,0.339435116896224,-0.478893161857481,671.474542305092,119.693587945442,13.6820834550594,7.44834298915764,-14,-0.244346095279206
92,-0.279112045139322,0.358851476623353,-0.489946056916486,678.623717814,121.783349373685,13.2031902932019,7.44703899206196,-14,-0.244346095279206
93,-0.281581113373451,0.377855723530326,-0.500567249863749,685.78351730903,123.831680631136,12.7132442362855,7.44551305393349,-14,-0.244346095279206
94,-0.284304617250475,0.396429290168578,-0.510744514844519,692.953979620704,125.836708030737,12.2126769864217,7.4437591162149,-14,-0.244346095279206
95,-0.287283366535938,0.414554572439442,-0.520467515473852,700.135094135493,127.796591727726,11.7019324715772,7.44177228311485,-14,-0.244346095279206
96,-0.2905169664078,0.432215114363575,-0.529727956549148,707.326800834874,129.709529119231,11.1814649561033,7.43954883620981,-14,-0.244346095279206
97,-0.29400384475381,0.449395777447758,-0.538519699036682,714.528990558416,131.573758201845,10.6517369995542,7.43708623936437,-14,-0.244346095279206
98,-0.297741290093154,0.466082891578905,-0.546838836971327,721.741505494835,133.38756084372,10.1132173005175,7.43438313345909,-14,-0.244346095279206
99,-0.301725499661181,0.482264384852937,-0.554683735787804,728.964139901116,135.149265929217,9.56637846354618,7.43143932066817,-14,-0.244346095279206
100,-0.305951636951222,0.497929890300128,-0.562055032525402,736.196641045924,136.857252336401,9.01169472775838,7.42825573829182,-14,-0.244346095279206
101,-0.310413897788686,0.513070828076088,-0.568955599270364,743.438710369752,138.50995171086,8.44963969523298,7.42483442240934,-14,-0.244346095279206
102,-0.31510558382732,0.527680462323791,-0.575390472076298,750.690004850684,140.105851003109,7.88068409596261,7.42117846186862,-14,-0.244346095279206
103,-0.320019182211731,0.541753932551291,-0.58136674839235,757.950138561363,141.643494741418,7.30529362388631,7.41729194335643,-14,-0.244346095279206
104,-0.325146450047838,0.555288259986788,-0.586893456697144,765.218684399889,143.121487016849,6.72392687549396,7.41317988849384,-14,-0.244346095279206
105,-0.33047850226573,0.568282329944627,-0.591981402557718,772.495175974942,144.538493162685,6.13703341879682,7.40884818406448,-14,-0.244346095279206
106,-0.336005901446955,0.580736851743188,-0.596642995690223,779.779109623565,145.893241115988,5.5450520162391,7.40430350660655,-14,-0.244346095279206
107,-0.341718748218271,0.592654298143222,-0.600892062786378,787.069946538659,147.184522454601,4.94840902054888,7.39955324267908,-14,-0.244346095279206
108,-0.347606770882231,0.604038826612809,-0.604743650889361,794.367114982535,148.411193108421,4.3475169577625,7.39460540614925,-14,-0.244346095279206
109,-0.353659413056059,0.614896184967522,-0.608213825966458,801.67001256261,149.57217374891,3.74277330687314,7.38946855384137,-14,-0.244346095279206
110,-0.359865918217847,0.625233604081258,-0.611319471051671,808.978008545677,150.666449865659,3.13455948090668,7.38415170084382,-14,-0.244346095279206
111,-0.366215410205997,0.635059680418533,-0.614078087943327,816.290446187976,151.693071543083,2.52324000985501,7.3786642366919,-14,-0.244346095279206
112,-0.372696968877155,0.644384251110588,-0.616507605966294,823.60664505951,152.651152954029,1.90916192191169,7.37301584353856,-14,-0.244346095279206
113,-0.379299700292734,0.653218264195744,-0.618626200773737,830.925903342618,153.539871590176,1.29265431594539,7.36721641729783,-14,-0.244346095279206
114,-0.386012800968361,0.661573646481566,-0.62045212559698,838.247500086676,154.358467251473,0.674028115171655,7.36127599260371,-14,-0.244346095279206
115,-0.39282561587886,0.669463171275689,-0.622003556779334,845.570697402844,155.106240818643,0.0535759895746748,7.35520467227765,-14,-0.244346095279206
116,-0.399727690059143,0.676900327987097,-0.623298454873164,852.894742584926,155.782552833853,-0.56842756720466,7.34901256184572,-14,-0.244346095279206
117,-0.406708813775512,0.683899195333179,-0.624354442057133,860.218870144677,156.386821915191,-1.19172602207782,7.34270970949792,-14,-0.244346095279206
118,-0.413759061359737,0.690474319611596,-0.625188696156845,867.542303752071,156.918523030518,-1.81608046413496,7.33630605174108,-14,-0.244346095279206
119,-0.420868823898785,0.696640599220398,-0.625817861136483,874.864258073221,157.377185655773,-2.4412691602918,7.32981136486706,-14,-0.244346095279206
120,-0.428028836055565,0.702413176343288,-0.626257973577426,882.183940500672,157.762391841871,-3.06708702142828,7.32323522224147,-14,-0.244346095279206
121,-0.435230197360894,0.707807336466415,-0.626524404374114,889.500552772699,158.073774213083,-3.69334499500571,7.31658695731726,-14,-0.244346095279206
122,-0.442464388364908,0.712838416163414,-0.626631814656558,896.813292479967,158.31101391829,-4.31986939937982,7.30987563219219,-14,-0.244346095279206
123,-0.449723282068626,0.717521719380085,-0.626594124789453,904.121354459444,158.473838554765,-4.94650121403638,7.30311001146001,-14,-0.244346095279206
124,-0.456999151075031,0.721872442270884,-0.626424495194407,911.423932076811,158.562020082365,-5.57309533882583,7.29629854105151,-14,-0.244346095279206
125,-0.464284670905572,0.725905606486924,-0.626135317687942,918.720218399769,158.575372744087,-6.19951983402024,7.28944933172181,-14,-0.244346095279206
126,-0.471572919924334,0.729636000689024,-0.625738216016363,926.009407265566,158.513751007069,-6.82565515170818,7.28257014681461,-14,-0.244346095279206
127,-0.478857376300174,0.733078129958229,-0.625244054292132,933.290694246886,158.377047536228,-7.45139336772455,7.27566839391866,-14,-0.244346095279206
128,-0.486131912418533,0.736246172698351,-0.624662952087628,940.563277520778,158.16519121094,-8.07663742201668,7.26875112002775,-14,-0.244346095279206
129,-0.493390787131183,0.739153944568295,-0.624004305014503,947.826358645807,157.878145193446,-8.70130037410431,7.26182500981861,-14,-0.244346095279206
130,-0.500628636205188,0.7418148689437,-0.623276809704129,955.079143252845,157.515905056056,-9.32530467911881,7.25489638667208,-14,-0.244346095279206
131,-0.507840461303248,0.744241953385338,-0.622488492201372,962.320841655156,157.078496972774,-9.94858148882294,7.24797121607832,-14,-0.244346095279206
132,-0.515021617797313,0.746447771583276,-0.62164673888575,969.550669383438,156.565975979584,-10.5710699810243,7.24105511108697,-14,-0.244346095279206
133,-0.522167801686925,0.748444450248577,-0.620758329136959,976.767847651517,155.978424306474,-11.1927167199101,7.23415333948547,-14,-0.244346095279206
