Time (s),Surge Velocity,Sway Velocity,Yaw Rate,Position X,Position Y,Yaw Angle,Speed U,Rudder Angle (deg),Rudder Angle (rad)
0,0,0,0,0,0,0,7.7175,0,0
1,0,-0.000881109093038606,0.00467568124486468,7.7175,0,0,7.71750005029823,0,0
2,-5.05061946273619e-08,-0.00194062972400084,0.00893315986668464,15.435,-0.000881109093038606,0.00467568124486468,7.71750019348757,0,0
3,-2.78632950096638e-07,-0.00315310473839392,0.0128247452746449,23.1525000821634,-0.00219194425960544,0.0136088411115493,7.71750036549205,0,0
4,-8.39532020045812e-07,-0.00449637621971385,0.0163960195595167,30.8700003347604,-0.00351199545570486,0.0264335863861942,7.71750047030922,0,0
5,-1.90513560301529e-06,-0.00595115988821997,0.0196867033367701,38.5875007483234,-0.00444787904127373,0.0428296059457109,7.71750038940975,0,0
6,-3.6560903363542e-06,-0.00750067436189825,0.0227314102240254,46.3050011355825,-0.00463007183311137,0.062516309282481,7.71749998888078,0,0
7,-6.27604792635639e-06,-0.00913031821971858,0.0255603042743371,54.022501069626,-0.00371006403465275,0.0852477195065063,7.71749912484287,0,0
8,-9.9476885145021e-06,-0.0108273887102223,0.0281996728380958,61.7399998360119,-0.00135787722244622,0.110808023780843,7.71749764754567,0,0
9,-1.48500112457183e-05,-0.0125808367382528,0.030672425720993,69.4574963955485,0.00274009952320731,0.139007696618939,7.71749540445279,0,0
10,-2.11565455607553e-05,-0.014381053452539,0.0329985301092313,77.1749893552194,0.00888299623494717,0.169680122339932,7.71749224255297,11,0.191986217719376
11,-2.90342261149153e-05,-0.0162196843589209,0.0351953895174194,84.892476945317,0.0173571070645734,0.202678652449164,7.71748801007968,11,0.191986217719376
12,-0.000349878090447976,-0.0235775738784306,0.0559458942610391,92.6099570013003,0.0284373247441585,0.237874041966583,7.71718613913638,11,0.191986217719376
13,-0.00162143225673303,-0.0370042944142834,0.0934229199979131,100.327138501398,0.0368990402578293,0.293819936227622,7.71596730099117,11,0.191986217719376
14,-0.00316546676718597,-0.0526793310925606,0.13150513725161,108.04310537638,0.0394630510394428,0.387242856225535,7.71451439836317,11,0.191986217719376
15,-0.0047340439327356,-0.0694772596406413,0.166632675847178,115.757619755848,0.0389231123733708,0.518747993477145,7.71307887828702,11,0.191986217719376
16,-0.00634762583564849,-0.0872184001669603,0.199159534403216,123.470698625968,0.0392780531365854,0.685380669324323,7.71164560822839,11,0.191986217719376
17,-0.00802709381936555,-0.105744092302452,0.229389530133486,131.182342595329,0.0443056492656325,0.884540203727538,7.71019807165744,11,0.191986217719376
18,-0.00979325186930644,-0.12491358215693,0.257582595540028,138.892529223916,0.0575893440329489,1.11392973386102,7.70871887658298,11,0.191986217719376
19,-0.0116664613448816,-0.144601379911418,0.283960382546129,146.60120771796,0.0825411707404553,1.37151232940105,7.70719015494845,11,0.191986217719376
20,-0.0136663693384281,-0.164695025432465,0.308711243243754,154.308294694403,0.12242126697551,1.65547271194718,7.70559388109148,11,0.191986217719376
21,-0.0158117034852135,-0.185093207189155,0.331994652094096,162.013670792894,0.180354341411512,1.96418395519094,7.70391213034134,11,0.191986217719376
22,-0.0181201139181203,-0.205704186945849,0.35394512985681,169.717177970574,0.259343425809444,2.29617860728503,7.70212729333457,11,0.191986217719376
23,-0.0206080489064276,-0.22644448899763,0.374675724542961,177.418617359014,0.362281217293588,2.65012373714184,7.70022225740312,11,0.191986217719376
24,-0.0232906550375875,-0.247237818080353,0.394281099363266,185.117747596313,0.491959289875366,3.0247994616848,7.69818056314582,11,0.191986217719376
25,-0.0261816959686496,-0.268014174581238,0.412840272155356,192.814283572759,0.65107543008884,3.41908056104807,7.69598654180893,11,0.191986217719376
26,-0.0292934860703902,-0.288709139401346,0.430419045321456,200.507895547324,0.842239329749,3.83192083320342,7.69362543720472,11,0.191986217719376
27,-0.0326368369213603,-0.309263303897693,0.447072160073666,208.198208605988,1.06797684931434,4.26233987852488,7.69108351445885,11,0.191986217719376
28,-0.0362210157368018,-0.329621822882984,0.462845203917548,215.88480244243,1.33073304803094,4.70941203859855,7.68834815680223,11,0.191986217719376
29,-0.0400537155553646,-0.349734070801794,0.477776295918326,223.567211447918,1.63287416174014,5.17225724251609,7.68540795083855,11,0.191986217719376
30,-0.0441410374430833,-0.369553383039917,0.491897570463469,231.244925100893,1.97668869565171,5.65003353843442,7.6822527601719,11,0.191986217719376
31,-0.0484874851772722,-0.389036865951444,0.505236477002977,238.917388648255,2.36438778718044,6.14193110889789,7.67887378692845,11,0.191986217719376
32,-0.0530959728968931,-0.408145260683593,0.517816910625674,246.584004070319,2.79810498276546,6.64716758590086,7.67526362052098,11,0.191986217719376
33,-0.0579678460948051,-0.426842847303808,0.5296601863007,254.244131320056,3.27989556209899,7.16498449652654,7.67141627295782,11,0.191986217719376
34,-0.0631029161186232,-0.445097377132213,0.540785868138507,261.897089824992,3.81173553307693,7.69464468282724,7.66732720006533,11,0.191986217719376
35,-0.0684995080733106,-0.462880022583565,0.551212464045446,269.542160237317,4.39552041079109,8.23543055096575,7.66299330815326,11,0.191986217719376
36,-0.0741545217089477,-0.480165335239826,0.560957995584953,277.178586414582,5.0330638838118,8.78664301501119,7.65841294588365,11,0.191986217719376
37,-0.080063504556813,-0.496931204306676,0.570040452629909,284.805577610132,5.72609646073179,9.34760101059615,7.65358588138535,11,0.191986217719376
38,-0.0862207362681547,-0.513158809042747,0.578478142402488,292.422310849364,6.47626417939424,9.91764146322605,7.64851326496606,11,0.191986217719376
39,-0.0926193228314623,-0.528832560168069,0.58628994265694,300.02793346511,7.28512745041712,10.4961196056285,7.64319757809204,11,0.191986217719376
40,-0.099251299110512,-0.543940026631544,0.593495468979232,307.621565763248,8.15416009561996,11.0824095482855,7.63764256961376,-11,-0.191986217719376
41,-0.106107737967774,-0.558471845416909,0.600115166377012,315.202303787955,9.08474863087581,11.6759050172647,7.63185318049603,-11,-0.191986217719376
42,-0.112400820650765,-0.567184866241093,0.588472783623103,322.769222155095,10.0781918319088,12.2760201836417,7.62622004667,-11,-0.191986217719376
43,-0.118514747662448,-0.569640182276191,0.56027227401232,330.321023730508,11.1409830465055,12.8644929672648,7.62030621448425,-11,-0.191986217719376
44,-0.124814499965381,-0.56558548250313,0.517322048090968,337.85609768495,12.2775248643027,13.4247652412772,7.61372182578627,-11,-0.191986217719376
45,-0.131660767888185,-0.554932540727872,0.461495583793089,345.372628792396,13.4901749173843,13.9420872893681,7.60610984539439,-11,-0.191986217719376
46,-0.138376360783306,-0.540757708192106,0.404958260848241,352.868693377447,14.7793307330099,14.4035828731612,7.59839022671924,-11,-0.191986217719376
47,-0.144337411876704,-0.52524679440205,0.354596953666587,360.344100756835,16.140880787063,14.8085411340094,7.59135533229607,-11,-0.191986217719376
48,-0.149605724077907,-0.508654893982105,0.309553218668376,367.799970774229,17.5687036279309,15.163138087676,7.58496892364803,-11,-0.191986217719376
49,-0.154240353806259,-0.491191894416362,0.269082363448763,375.237436619119,19.0572785769334,15.4726913063444,7.57919296184515,-11,-0.191986217719376
50,-0.158296803470514,-0.473030754755936,0.23254061907192,382.657626175167,20.6016078505021,15.7417736697932,7.57398911151624,-11,-0.191986217719376
51,-0.161826683526325,-0.454314153222988,0.199372906481636,390.06164971433,22.197147412183,15.9743142888651,7.56931969301674,-11,-0.191986217719376
52,-0.164877671280974,-0.435159850697033,0.169101533281233,397.450592132233,23.8397461337215,16.1736871953467,7.56514825604389,-11,-0.191986217719376
53,-0.167493649277519,-0.415665041375859,0.141315977255653,404.825508387232,25.5255926177388,16.342788728628,7.56143989743831,-11,-0.191986217719376
54,-0.169714945037576,-0.395909901623217,0.115663796613973,412.187421161692,27.2511689341658,16.4841047058836,7.55816140910721,-11,-0.191986217719376
55,-0.171578620886591,-0.375960500921771,0.091842635496436,419.537320031716,29.0132105019341,16.5997685024976,7.55528131561057,-11,-0.191986217719376
56,-0.173118781026437,-0.355871202457111,0.0695932526279132,426.876161630605,30.8086713743646,16.691611137994,7.55276984224591,-11,-0.191986217719376
57,-0.174366875500801,-0.335686652886775,0.0486934807368989,434.20487043808,32.6346942398217,16.7612043906219,7.5505988413399,-11,-0.191986217719376
58,-0.175351989039837,-0.315443439382601,0.0289530171608492,441.524339934673,34.4885845147002,16.8098978713588,7.54874169532114,-11,-0.191986217719376
59,-0.176101108260941,-0.29517147554191,0.0102089468749629,448.835433938818,36.3677879750101,16.8388508885197,7.54717320884427,-11,-0.191986217719376
60,-0.17663936424627,-0.274895165049508,-0.00767809538173044,456.138988000668,38.2698714405643,16.8490598353947,7.54586949791923,-11,-0.191986217719376
61,-0.176990249744306,-0.254634382125261,-0.02482720937727,463.435810767296,40.1925060891742,16.8413817400129,7.54480788107037,-11,-0.191986217719376
62,-0.177175811587671,-0.234405300119829,-0.0413400367403343,470.72668526301,42.1334530359032,16.8165545306357,7.54396677558168,-11,-0.191986217719376
63,-0.17721681968179,-0.21422109360377,-0.0573031591679625,478.012370049152,44.0905508638251,16.7752144938953,7.54332560057794,-11,-0.191986217719376
64,-0.177132914302976,-0.194092534542084,-0.072790146746243,485.293600242376,46.0617048379268,16.7179113347274,7.54286468783764,-11,-0.191986217719376
65,-0.176942733588648,-0.174028499364297,-0.087863307801419,492.571088380555,48.0448775731387,16.6451211879811,7.54256520068737,-11,-0.191986217719376
66,-0.176664023099659,-0.154036400708901,-0.102575184647492,499.845525132589,50.0380809614788,16.5572578801797,7.54240906098694,-11,-0.191986217719376
67,-0.176313729246946,-0.134122555174338,-0.116969833360633,507.117579853198,52.0393691925252,16.4546826955322,7.54237888401271,-11,-0.191986217719376
68,-0.175908078242601,-0.114292496420871,-0.131083920261392,514.387900987093,54.0468327264514,16.3377128621716,7.54245792093364,-11,-0.191986217719376
69,-0.175462642085077,-0.0945512413430991,-0.144947663063907,521.65711632904,56.0585931002142,16.2066289419102,7.54263000851983,-11,-0.191986217719376
70,-0.174992392936065,-0.0749035156984239,-0.158585640584102,528.925833147794,58.0727984656609,16.0616812788463,7.54287952570378,-11,-0.191986217719376
71,-0.174511747102435,-0.0553539444763204,-0.17201749140933,536.194638182717,60.0876197737563,15.9030956382622,7.54319135661556,-11,-0.191986217719376
72,-0.174034599706213,-0.0359072113835618,-0.185258518944647,543.464097522508,62.1012475322169,15.7310781468528,7.54355085972507,-11,-0.191986217719376
73,-0.173574351011453,-0.0165681910678267,-0.198320217695691,550.734756375742,64.1118890748962,15.5458196279082,7.54394384274052,-11,-0.191986217719376
74,-0.173143925280121,0.00265794291980228,-0.211210733461171,558.007138743165,66.1177662905845,15.3474994102125,7.54435654292819,-11,-0.191986217719376
75,-0.172755782949318,0.0217656319347735,-0.223935268232807,565.281747001794,68.1171137667153,15.1362886767513,7.54477561253171,-11,-0.191986217719376
76,-0.172421926858413,0.040748865750858,-0.236496438987737,572.559061410973,70.1081773100052,14.9123534085185,7.54518810897793,-11,-0.191986217719376
77,-0.172153903205381,0.0596011340407228,-0.248894598165602,579.839539550612,72.0892128114778,14.6758569695308,7.54558148956015,-11,-0.191986217719376
78,-0.171962797875161,0.0783153943597727,-0.261128122413572,587.123615701935,74.058485427782,14.4269623713652,7.54594361028783,-11,-0.191986217719376
79,-0.171859228757133,0.0968840553742394,-0.273193675127185,594.411700181122,76.014269054332,14.1658342489516,7.54626272858482,-11,-0.191986217719376
80,-0.171853334652006,0.115298974227454,-0.285086447388085,601.704178636364,77.954846068689,13.8926405738244,7.54652750950629,-11,-0.191986217719376
81,-0.171954761358266,0.133551467044291,-0.296800381081183,609.001411318913,79.8785073248549,13.6075541264363,7.54672703512845,-11,-0.191986217719376
82,-0.172172645522953,0.151632331638982,-0.30832837724712,616.303732338793,81.7835523808482,13.3107537453552,7.54685081674587,-11,-0.191986217719376
83,-0.17251559683878,0.169531881521519,-0.31966249207887,623.61144891591,83.6682899431471,13.002425368108,7.54688880948953,-11,-0.191986217719376
84,-0.17299167916756,0.187239990298295,-0.330794122394263,630.924840637307,85.5310385123879,12.6827628760292,7.54683142895592,-11,-0.191986217719376
85,-0.173608391166617,0.204746145538954,-0.341714181902714,638.244158731258,87.3701272151525,12.3519687536349,7.54666956941536,-11,-0.191986217719376
86,-0.174372646988675,0.222039511139129,-0.352413269129978,645.569625368834,89.1838968068298,12.0102545717322,7.54639462314651,-11,-0.191986217719376
87,-0.175290757614967,0.239108997153581,-0.362881827466911,652.901433003344,90.970700830445,11.6578413026022,7.54599850042644,-11,-0.191986217719376
88,-0.176368413364739,0.255943336011671,-0.373110297465652,660.239743757795,92.7289069160727,11.2949594751353,7.54547364969203,-11,-0.191986217719376
89,-0.177610668100797,0.272531163962881,-0.383089261219265,667.584688870147,94.4568982050362,10.9218491776697,7.54481307738093,-11,-0.191986217719376
90,-0.179021925619517,0.288861106539507,-0.39280957842876,674.936368205586,96.1530748825958,10.5387599164504,7.54401036695911,-11,-0.191986217719376
91,-0.180605928674419,0.304921866771966,-0.402262513584861,682.294849844474,97.8158558022988,10.1459503380216,7.54305969664952,-11,-0.191986217719376
92,-0.182365751034909,0.320702314853998,-0.411439853570931,689.660169753852,99.4436801846392,9.74368782443677,7.54195585539185,-11,-0.191986217719376
93,-0.184303792926471,0.33619157793453,-0.420334014927182,697.032331549516,101.035009372216,9.33224797086583,7.54069425658812,-11,-0.191986217719376
94,-0.186421780136164,0.351379128713365,-0.428938140003193,704.411306354719,102.588328623214,8.91191395593865,7.53927094922333,-11,-0.191986217719376
95,-0.188720766998825,0.366254871541629,-0.437246181262891,711.797032760449,104.102148924805,8.48297581593546,7.53768262599307,-11,-0.191986217719376
96,-0.191201143406246,0.380809224776343,-0.445252973089434,719.189416891069,105.575008808008,8.04572963467257,7.53592662812207,-11,-0.191986217719376
97,-0.193862645905509,0.395033198212005,-0.452954290561584,726.588332577863,107.005476145685,7.60047666158313,7.53400094661632,-11,-0.191986217719376
98,-0.196704372875384,0.408918464509706,-0.460346894831552,733.993621641712,108.392149915698,7.14752237102155,7.53190421975703,-11,-0.191986217719376
99,-0.199724803693271,0.422457423664395,-0.46742856491949,741.40509428484,109.73366191183,6.68717547619,7.5296357267144,-11,-0.191986217719376
100,-0.202921821731516,0.435643259690423,-0.47419811594344,748.822529590184,111.028678385875,6.21974691127051,7.52719537723199,-11,-0.191986217719376
101,-0.206292740952996,0.448469988860947,-0.480655404016995,756.24567612571,112.275901605324,5.74554879532707,7.52458369740608,-11,-0.191986217719376
102,-0.209834335813426,0.460932499003695,-0.486801318261415,763.674252649682,113.474071312318,5.26489339131007,7.52180181165682,-11,-0.191986217719376
103,-0.213542874123463,0.473026579529386,-0.492637760585941,771.107948911764,114.621966070976,4.77809207304866,7.51885142105724,-11,-0.191986217719376
104,-0.217414152478531,0.484748942044653,-0.498167614081968,778.546426543734,115.718404491781,4.28545431246272,7.51573477825058,-11,-0.191986217719376
105,-0.221443533829396,0.496097231573837,-0.50339470104652,785.989320032656,116.762246323465,3.78728669838075,7.51245465924377,-11,-0.191986217719376
106,-0.225625986742338,0.507070028578777,-0.508323731792875,793.436237768526,117.752393404644,3.28389199733423,7.50901433241463,-11,-0.191986217719376
107,-0.229956125884521,0.517666842118419,-0.512960245516801,800.886763157768,118.687790469356,2.77556826554135,7.50541752511032,-11,-0.191986217719376
108,-0.234428253267594,0.527888094627247,-0.517310544563418,808.340455793421,119.567425802571,2.26260802002455,7.50166838824498,-11,-0.191986217719376
109,-0.239036399790194,0.537735098910121,-0.521381623480951,815.796852672568,120.390331743638,1.74529747546113,7.49777145932462,-11,-0.191986217719376
110,-0.243774366636941,0.547210028049226,-0.525181094254173,823.255469451337,121.155585037479,1.22391585198018,7.49373162433682,-11,-0.191986217719376
111,-0.248635766116729,0.556315878995048,-0.52871710908402,830.715801727829,121.862307035095,0.69873475772601,7.4895540789424,-11,-0.191986217719376
112,-0.253614061555223,0.565056430667414,-0.531998282023497,838.177326343447,122.5096637466,0.170017648641991,7.48524428939713,-11,-0.191986217719376
113,-0.258702605894258,0.573436197424824,-0.535033610697707,845.639502693374,123.096865751491,-0.361980633381507,7.48080795361274,-11,-0.191986217719376
114,-0.263894678692662,0.581460378771767,-0.537832399231877,853.101774037364,123.623167972176,-0.897014244079214,7.47625096274212,-11,-0.191986217719376
115,-0.269183521267656,0.589134806166001,-0.5404041833908,860.563568802507,124.087869317969,-1.43484664331109,7.4715793636414,-11,-0.191986217719376
116,-0.274562369761851,0.596465887762939,-0.542758658800934,868.024301870222,124.4903122077,-1.97525082670189,7.46679932252635,-11,-0.191986217719376
117,-0.280024485966881,0.603460551894806,-0.5449056129876,875.483375840408,124.829881979879,-2.51800948550282,7.4619170901006,-11,-0.191986217719376
118,-0.285563185779595,0.610126190030559,-0.546854861818791,882.940182266395,125.106006199929,-3.06291509849042,7.45693896839217,-11,-0.191986217719376
119,-0.291171865209601,0.616470599901475,-0.548616190808216,890.394102855088,125.318153874401,-3.60976996030922,7.45187127949231,-11,-0.191986217719376
120,-0.296844023897014,0.622501929409275,-0.550199301596944,897.84451062746,125.46583458232,-4.15838615111743,7.44672033634883,-11,-0.191986217719376
121,-0.302573286135854,0.628228621861294,-0.551613763808278,905.290771035319,125.548597533866,-4.70858545271438,7.44149241572562,-11,-0.191986217719376
122,-0.308353419431277,0.633659363002658,-0.552868972356538,912.732243031011,125.566030566509,-5.26019921652265,7.43619373340112,-11,-0.191986217719376
123,-0.314178350647445,0.638803030240826,-0.553974110188887,920.168280087474,125.517759088514,-5.81306818887919,7.43083042164314,-11,-0.191986217719376
124,-0.320042179827174,0.643668644384896,-0.554938116351177,927.598231166699,125.403444979383,-6.36704229906808,7.42540850896437,-11,-0.191986217719376
125,-0.325939191784666,0.648265324152156,-0.555769659194352,935.021441635341,125.222785456422,-6.92198041541926,7.41993390213437,-11,-0.191986217719376
126,-0.331863865588651,0.652602243628766,-0.556477114477298,942.437254126787,124.975511916069,-7.47775007461361,7.41441237039807,-11,-0.191986217719376
127,-0.337810882065428,0.656688592810853,-0.557068548074562,949.845009349522,124.661388758128,-8.03422718909091,7.40884953182947,-11,-0.191986217719376
128,-0.343775129459895,0.660533541297448,-0.557551702962307,957.244046842138,124.2802122004,-8.59129573716547,7.40325084173167,-11,-0.191986217719376
129,-0.349751707397935,0.664146205157809,-0.557933990132273,964.63370567572,123.831809090625,-9.14884744012777,7.39762158297964,-11,-0.191986217719376
130,-0.355735929296015,0.667535616952955,-0.558222483070022,972.013325104739,123.316035721978,-9.70678143026005,7.391966858192,-11,-0.191986217719376
131,-0.361723323363693,0.670710698854663,-0.558423915429227,979.382245167855,122.73277665774,-10.2650039133301,7.38629158360979,-11,-0.191986217719376
132,-0.367709632342589,0.673680238774432,-0.558544681536793,986.739807240322,122.081943570141,-10.8234278287593,7.38060048455577,-11,-0.191986217719376
133,-0.373690812121295,0.676452869389895,-0.558590839372911,994.085354539866,121.363474097733,-11.3819725102961,7.37489809234524,11,0.191986217719376
