Time (s),Surge Velocity,Sway Velocity,Yaw Rate,Position X,Position Y,Yaw Angle,Speed U,Rudder Angle (deg),Rudder Angle (rad)
0,0,0,0,0,0,0,7.7175,0,0
1,0,-0.000881109093038606,0.00467568124486468,7.7175,0,0,7.71750005029823,0,0
2,-5.05061946273619e-08,-0.00194062972400084,0.00893315986668464,15.435,-0.000881109093038606,0.00467568124486468,7.71750019348757,0,0
3,-2.78632950096638e-07,-0.00315310473839392,0.0128247452746449,23.1525000821634,-0.00219194425960544,0.0136088411115493,7.71750036549205,0,0
4,-8.39532020045812e-07,-0.00449637621971385,0.0163960195595167,30.8700003347604,-0.00351199545570486,0.0264335863861942,7.71750047030922,0,0
5,-1.90513560301529e-06,-0.00595115988821997,0.0196867033367701,38.5875007483234,-0.00444787904127373,0.0428296059457109,7.71750038940975,0,0
6,-3.6560903363542e-06,-0.00750067436189825,0.0227314102240254,46.3050011355825,-0.00463007183311137,0.062516309282481,7.71749998888078,0,0
7,-6.27604792635639e-06,-0.00913031821971858,0.0255603042743371,54.022501069626,-0.00371006403465275,0.0852477195065063,7.71749912484287,0,0
8,-9.9476885145021e-06,-0.0108273887102223,0.0281996728380958,61.7399998360119,-0.00135787722244622,0.110808023780843,7.71749764754567,0,0
9,-1.48500112457183e-05,-0.0125808367382528,0.030672425720993,69.4574963955485,0.00274009952320731,0.139007696618939,7.71749540445279,0,0
10,-2.11565455607553e-05,-0.014381053452539,0.0329985301092313,77.1749893552194,0.00888299623494717,0.169680122339932,7.71749224255297,18,0.314159265358979
11,-2.90342261149153e-05,-0.0162196843589209,0.0351953895174194,84.892476945317,0.0173571070645734,0.202678652449164,7.71748801007968,18,0.314159265358979
12,-0.000349878090447976,-0.0235775738784306,0.0559458942610391,92.6099570013003,0.0284373247441585,0.237874041966583,7.71718613913638,18,0.314159265358979
13,-0.00162143225673303,-0.0370042944142834,0.0934229199979131,100.327138501398,0.0368990402578293,0.293819936227622,7.71596730099117,18,0.314159265358979
14,-0.00447668816450179,-0.056855675808664,0.145708104944202,108.04310537638,0.0394630510394428,0.387242856225535,7.7132328615691,18,0.314159265358979
15,-0.00859322414924871,-0.0813260411582393,0.204097924505457,115.756336790689,0.0347380010077509,0.532950961169738,7.70933574335222,18,0.314159265358979
16,-0.0127563177982342,-0.107460588004444,0.257880011819677,123.465666535382,0.0251207601398587,0.737048885675195,7.70549303979974,18,0.314159265358979
17,-0.0170149793053643,-0.134971858973934,0.307586447898184,131.17115506056,0.016779611685229,0.994928897494872,7.70166780357718,18,0.314159265358979
18,-0.0214187311233862,-0.163601335850203,0.353663647966148,138.872822764159,0.0155386490636659,1.30251534539306,7.69781997024128,18,0.314159265358979
19,-0.0260163451796054,-0.193114347608863,0.396483094097581,146.570634319269,0.0269209277119446,1.6561789933592,7.69390758741107,18,0.314159265358979
20,-0.0308548589793639,-0.223295961736533,0.436351219003498,154.264486254491,0.056184599685091,2.05266208745678,7.68988781520927,18,0.314159265358979
21,-0.0359787852546472,-0.253947739551074,0.473518500243019,161.954197114813,0.108352551075405,2.48901330646028,7.68571776914857,18,0.314159265358979
22,-0.0414294584219578,-0.284885249292553,0.508187826319219,169.639499727546,0.188236077066764,2.9625318067033,7.68135525571801,18,0.314159265358979
23,-0.0472444824835995,-0.315936240929973,0.540522191383288,177.320035249018,0.300453134406407,3.47071963302252,7.67675943431366,18,0.314159265358979
24,-0.0534572607598291,-0.346939393530538,0.57065176480561,184.99534878112,0.449441711987433,4.01124182440581,7.6718914259577,18,0.314159265358979
25,-0.0600965991544006,-0.377743549997657,0.598680367739798,192.664886429136,0.639468860965613,4.58189358921142,7.66671487880217,18,0.314159265358979
26,-0.0671863823812009,-0.408207355767113,0.624691373352107,200.327993728612,0.874635928312647,5.18057395695122,7.66119649227365,18,0.314159265358979
27,-0.0747453273350501,-0.438199218658321,0.648753032914117,207.983915403549,1.15888054209312,5.80526533030333,7.65530649561301,18,0.314159265358979
28,-0.0827868200553454,-0.467597507590187,0.670923218485738,215.631796434284,1.49597590174553,6.45401836321744,7.64901907234681,18,0.314159265358979
29,-0.0913188429182141,-0.496290909315215,0.691253566017747,223.270684414236,1.88952792989479,7.12494158170318,7.64231271980532,18,0.314159265358979
30,-0.100343997195429,-0.524178865553151,0.709793001348464,230.899533163155,2.34297084077294,7.81619514772093,7.63517053209385,18,0.314159265358979
31,-0.109859623344694,-0.551172018493403,0.726590636033817,238.517207543709,2.85956167111643,8.52598814906939,7.62758039580614,18,0.314159265358979
32,-0.119858017778059,-0.577192600816015,0.741698029789883,246.122489401365,3.44237429975179,9.25257878510321,7.61953509004704,18,0.314159265358979
33,-0.130326740840028,-0.602174717015789,0.755170830436682,253.714084517669,4.09429345008309,9.99427681489309,7.61103228572348,18,0.314159265358979
34,-0.141249006752252,-0.626064475417755,0.767069818992343,261.2906304376,4.81800912457625,10.7494476453298,7.60207444320743,18,0.314159265358979
35,-0.152604142744687,-0.648819944083352,0.777461405062968,268.850705005364,5.61601186261253,11.5165174643221,7.59266861195449,18,0.314159265358979
36,-0.164368101817071,-0.67041091789797,0.786417633954983,276.392835422484,6.49058914456339,12.2939788693851,7.58282614004734,18,0.314159265358979
37,-0.176514011782355,-0.690818497536089,0.794015780272943,283.915507629058,7.44382318855505,13.0803965033401,7.57256230552333,18,0.314159265358979
38,-0.18901274254285,-0.710034492842826,0.800337611859291,291.417175804749,8.47759030588287,13.874412283613,7.56189588441425,18,0.314159265358979
39,-0.201833473930895,-0.728060672764852,0.805468412052976,298.896271790671,9.5935619005413,14.6747498954723,7.55084867245414,18,0.314159265358979
40,-0.21494424779691,-0.744907890883111,0.809495847268231,306.351214246322,10.7932071219439,15.4802183075253,7.53944497830017,18,0.314159265358979
41,-0.228312490157597,-0.760595119700283,0.812508761256976,313.780417375876,12.0777971112532,16.2897141547935,7.52771110588679,18,0.314159265358979
42,-0.241905491887447,-0.775148428237431,0.814595967985276,321.18229908387,13.4484107236755,17.1022229160505,7.51567484232265,18,0.314159265358979
43,-0.255690839393687,-0.788599936530265,0.815845102961623,328.555288449559,14.9059415634745,17.9168188840358,7.50336496574729,18,0.314159265358979
44,-0.269636789718022,-0.800986777763779,0.816341579332337,335.897832440067,16.4511061361485,18.7326639869974,7.49081078503684,-18,-0.314159265358979
45,-0.283712587353173,-0.812350094591897,0.816167681275313,343.208401812989,18.0844529030455,19.5490055663297,7.4780417204379,-18,-0.314159265358979
46,-0.296524853102226,-0.818062823291063,0.79977320293815,350.485496187723,19.8063720166554,20.365173247605,7.46592920631621,-18,-0.314159265358979
47,-0.308343929751744,-0.81795101481881,0.768864934386253,357.727301297654,21.6219594322055,21.1649464505432,7.45416913786773,-18,-0.314159265358979
48,-0.319430021289064,-0.811989969229865,0.725203594392656,364.931996344569,23.5342896382356,21.9338113849294,7.44249737118086,-18,-0.314159265358979
49,-0.330048354146196,-0.800271351961346,0.670548422130731,372.097871191596,25.5445146994636,22.6590149793221,7.43067130591834,-18,-0.314159265358979
50,-0.340480760982087,-0.782975207082934,0.606616978474911,379.223415625617,27.6519995927395,23.3295634014528,7.41845422091065,-18,-0.314159265358979
51,-0.351033561838464,-0.760349032582439,0.535063168254686,386.307379082089,29.854481096661,23.9361803799277,7.40560317839873,-18,-0.314159265358979
52,-0.362041926584947,-0.732694794742031,0.457473182255049,393.348802145745,32.148237769572,24.4712435481824,7.39186073543115,-18,-0.314159265358979
53,-0.371935490631297,-0.703710527465203,0.386730992280886,400.347023104774,34.5282605721132,24.9287167304375,7.37919551629867,-18,-0.314159265358979
54,-0.380411610636156,-0.67438187007391,0.324526470741949,407.304829711216,36.9861974498857,25.3154477227184,7.36801580753069,-18,-0.314159265358979
55,-0.387640048322407,-0.644825097431919,0.269441486207766,414.225684425141,39.5139290354718,25.6399741934603,7.35816867960263,-18,-0.314159265358979
56,-0.393768141244822,-0.615129856868042,0.220299348846622,421.112804674766,42.1043384596145,25.9094156796681,7.34951924140321,-18,-0.314159265358979
57,-0.39892404624419,-0.585365057965368,0.176122512664715,427.969179592402,44.7511395606741,26.1297150285147,7.34194839548601,-18,-0.314159265358979
58,-0.403219634111216,-0.555583287595139,0.136097656420008,434.797589509264,47.4487355736602,26.3058375411794,7.33535071147121,-18,-0.314159265358979
59,-0.406753013950852,-0.525824190399905,0.0995469948832787,441.600626083368,50.1921027440702,26.4419351975994,7.3296324991937,-18,-0.314159265358979
60,-0.409610702369505,-0.496117109708537,0.0659047740636355,448.380711821431,52.9766942684685,26.5414821924827,7.32471010845944,-18,-0.314159265358979
61,-0.411869469640371,-0.46648318949635,0.0346980400119652,455.140118316867,55.7983607977411,26.6073869665463,7.32050845312028,-18,-0.314159265358979
62,-0.413597901118864,-0.436937076024441,0.00553091044738525,461.880982875397,58.6532844422143,26.6420850065583,7.3169597428471,-18,-0.314159265358979
63,-0.414857712443757,-0.407488316598363,-0.0219282923816746,468.605323412463,61.5379237992236,26.6476159170057,7.31400240006584,-18,-0.314159265358979
64,-0.415704854393434,-0.378142525136781,-0.0479575759832116,475.315051631806,64.4489679985995,26.625687624624,7.31158013822733,-18,-0.314159265358979
65,-0.416190439330217,-0.348902365260604,-0.0727899113036813,482.011984564131,67.3832981466351,26.5777300486408,7.30964117869081,-18,-0.314159265358979
66,-0.416361516875706,-0.319768388403526,-0.0966203180268222,488.697854579817,70.337954860124,26.5049401373371,7.30813758573145,-18,-0.314159265358979
67,-0.41626172229921,-0.290739755068393,-0.119611687945272,495.374318003376,73.3101108327894,26.4083198193103,7.3070247018154,-18,-0.314159265358979
68,-0.415931817302457,-0.261814860549315,-0.141899579285873,502.042962458593,76.2970475784953,26.288708131365,7.30626066793305,-18,-0.314159265358979
69,-0.415410139539215,-0.232991881380061,-0.163596171479779,508.705313067459,79.2961356586177,26.1468085520792,7.30580601624716,-18,-0.314159265358979
70,-0.414732974333834,-0.204269254909515,-0.184793534864673,515.362837616624,82.3048178326413,25.9832123805994,7.30562332451231,-18,-0.314159265358979
71,-0.413934859635282,-0.175646101382685,-0.205566341636958,522.016950794242,85.3205946776879,25.7984188457347,7.30567692363149,-18,-0.314159265358979
72,-0.413048833222629,-0.147122595480324,-0.225974121730199,528.669017589105,88.3410123092683,25.5928525040977,7.30593265134138,-18,-0.314159265358979
73,-0.412106629518841,-0.118700292282047,-0.246063149098017,535.320355933669,91.3636519060562,25.3668783823675,7.3063576463829,-18,-0.314159265358979
74,-0.411138832027572,-0.0903824109628459,-0.265868029232447,541.972238663228,94.3861207990387,25.1208152332695,7.30692017864345,-18,-0.314159265358979
75,-0.410174986341996,-0.0621740781451896,-0.285413046920463,548.625894855525,97.406044932486,24.8549472040371,7.30758951168066,-18,-0.314159265358979
76,-0.409243677849928,-0.0340825316697623,-0.304713323632693,555.282510608373,100.421062542742,24.5695341571166,7.3083357947765,-18,-0.314159265358979
77,-0.408372577644752,-0.00611728459819018,-0.323775826057984,561.943229307569,103.428818932378,24.2648208334839,7.30912998224798,-18,-0.314159265358979
78,-0.407588459720278,0.021709751484668,-0.342600260743003,568.609151433322,106.426962242962,23.9410450074259,7.30994377817122,-18,-0.314159265358979
79,-0.406917192255804,0.0493841853388061,-0.361179884237972,575.281333950667,109.413140150464,23.5984447466829,7.31074960497531,-18,-0.314159265358979
80,-0.406383705663595,0.0768891088967187,-0.37950225332003,581.960789327658,112.38499742386,23.237264862445,7.3115205945397,-18,-0.314159265358979
81,-0.406011940053519,0.104205105928269,-0.397549935550088,588.648484224508,115.340174300295,22.8577626091249,7.31223060049678,-18,-0.314159265358979
82,-0.405824774847534,0.131310308266659,-0.415301196450744,595.345337897134,118.276305639707,22.4602126735749,7.3128542304059,-18,-0.314159265358979
83,-0.405843943427611,0.158180500916261,-0.432730675849851,602.052220359555,121.191020828271,22.0449114771241,7.31336689634,-18,-0.314159265358979
84,-0.406089935900834,0.184789276711211,-0.449810062336921,608.769950351221,124.081944403798,21.6121808012743,7.31374488221992,-18,-0.314159265358979
85,-0.406581893289234,0.211108240304448,-0.466508771289028,615.499293157344,126.946697377422,21.1623707389373,7.3139654259612,-18,-0.314159265358979
86,-0.407337496672545,0.237107260164838,-0.482794628539343,622.24095833245,129.782899224772,20.6958619676483,7.31400681418042,-18,-0.314159265358979
87,-0.408372855001902,0.262754765984697,-0.49863455852108,628.995597379569,132.588170516647,20.213067339109,7.31384848686351,-18,-0.314159265358979
88,-0.409702395434337,0.288018087505939,-0.513995272689897,635.763801439255,135.360136154104,19.7144327805879,7.3134711490527,-18,-0.314159265358979
89,-0.411338760086296,0.312863829329355,-0.528843951300597,642.546099043995,138.096429166331,19.200437507898,7.31285688628733,-18,-0.314159265358979
90,-0.413292713047656,0.337258274858193,-0.543148909296329,649.342953994044,140.794695021899,18.6715935565974,7.31198928026622,-18,-0.314159265358979
91,-0.415573061319133,0.361167811231891,-0.556880235271637,656.154763410261,143.452596395514,18.1284446473011,7.31085352101267,-18,-0.314159265358979
92,-0.418186593026358,0.384559366016801,-0.570010391297041,662.981856017839,146.067818323622,17.5715644120294,7.30943651174401,-18,-0.314159265358979
93,-0.421138035821976,0.407400845621049,-0.582514760923511,669.82449071176,148.638073673732,17.0015540207324,7.30772696269617,-18,-0.314159265358979
94,-0.424430037821155,0.429661564960169,-0.594372132967535,676.68285545039,151.161108844559,16.4190392598089,7.30571547034508,-18,-0.314159265358979
95,-0.428063172743228,0.451312657869083,-0.605565109716307,683.557066517733,153.634709607668,15.8246671268413,7.30339457880513,-18,-0.314159265358979
96,-0.432035970178872,0.472327458159522,-0.616080429943667,690.447168187643,156.056706996606,15.219102017125,7.30075882066713,-18,-0.314159265358979
97,-0.436344971101186,0.492681842056318,-0.625909199497584,697.353132814908,158.424983146998,14.6030215871814,7.29780473514813,-18,-0.314159265358979
98,-0.440984807928038,0.512354523977975,-0.635047025070576,704.274861368788,160.737476991046,13.9771123876838,7.29453086213875,-18,-0.314159265358979
99,-0.445948307661723,0.531327299195498,-0.643494049921779,711.212184414651,162.992189712443,13.3420653626132,7.29093771151681,-18,-0.314159265358979
100,-0.451226615918758,0.549585228724482,-0.651254893587235,718.164863539162,165.18718987299,12.6985713126914,7.28702770790942,-18,-0.314159265358979
101,-0.456809339051858,0.567116763778718,-0.658338500791959,725.132593204419,167.320618129985,12.0473164191042,7.28280511188775,-18,-0.314159265358979
102,-0.462684701085295,0.583913809130726,-0.664757907672686,732.115003006923,169.390691473523,11.3889779183122,7.27827591932735,-18,-0.314159265358979
103,-0.468839711852734,0.599971726678602,-0.67052993587007,739.111660308652,171.39570692484,10.7242200106395,7.27344774132439,-18,-0.314159265358979
104,-0.47526034255223,0.615289282311467,-0.675674826928783,746.122073200088,173.334044650153,10.0536900747695,7.26832966759465,-18,-0.314159265358979
105,-0.481931704915349,0.629868540716297,-0.680215830675796,753.145693749135,175.204170458711,9.37801524784069,7.26293211667425,-18,-0.314159265358979
106,-0.488838230316033,0.64371471401714,-0.684178761804042,760.18192148556,177.004637668238,8.6977994171649,7.25726667647901,-18,-0.314159265358979
107,-0.495963845401809,0.656835971047743,-0.687591538791466,767.230107067983,178.734088335145,8.01362065536085,7.25134593886066,-18,-0.314159265358979
108,-0.503292141191325,0.669243214618988,-0.690483718597336,774.289556079569,180.391253860325,7.32602911656939,7.24518333173222,-18,-0.314159265358979
109,-0.510806533020643,0.680949834364004,-0.692886039393757,781.359532899289,181.974954993441,6.63554539797205,7.23879295213804,-18,-0.314159265358979
110,-0.518490409207618,0.691971442656006,-0.694829982027269,788.43926459775,183.484101269233,5.94265935857829,7.23218940333922,-18,-0.314159265358979
111,-0.526327266811304,0.702325600740293,-0.696347359088964,795.527944810017,184.917689918036,5.24782937655103,7.22538763859849,-18,-0.314159265358979
112,-0.534300833366598,0.712031541655058,-0.697469938526311,802.624737542198,186.274804299535,4.55148201746206,7.21840281390797,-18,-0.314159265358979
113,-0.542395173952012,0.721109895791996,-0.698229106770047,809.728780873646,187.554611913495,3.85401207893575,7.21125015143604,-18,-0.314159265358979
114,-0.550594783383911,0.729582424123165,-0.698655574472454,816.839190522193,188.756362044111,3.1557829721657,7.20394481499882,-18,-0.314159265358979
115,-0.558884663712021,0.737471763246829,-0.69877912623565,823.955063245571,189.879383095665,2.45712739769325,7.19650179841038,-18,-0.314159265358979
116,-0.567250387511501,0.74480118552741,-0.698628414204443,831.075480057897,190.9230796767,1.7583482714576,7.1889358271482,-18,-0.314159265358979
117,-0.575678147723604,0.751594376760099,-0.698230794140315,838.199509245659,191.886929488019,1.05971985725316,7.18126127339968,-18,-0.314159265358979
118,-0.584154794990804,0.757875233007452,-0.697612201594181,845.326209172789,192.770480066917,0.361489063112842,7.1734920842386,-18,-0.314159265358979
119,-0.592667863566905,0.763667677553077,-0.696797065052229,852.45463086917,193.573345436203,-0.336123138481339,7.1656417224202,-18,-0.314159265358979
120,-0.601205586963821,0.768995498308016,-0.695808252425121,859.583820401057,194.295202702234,-1.03292020353357,7.15772311908109,-18,-0.314159265358979
121,-0.609756904531423,0.773882205493755,-0.694667046961195,866.712821025548,194.935788641382,-1.72872845595869,7.14974863748098,-18,-0.314159265358979
122,-0.61831146016263,0.778350909011248,-0.693393148558266,873.84067513423,195.494896309467,-2.42339550291988,7.14173004682457,-18,-0.314159265358979
123,-0.626859594280645,0.782424214583317,-0.692004696493471,880.966425993582,195.972371703763,-3.11678865147815,7.13367850514629,-18,-0.314159265358979
124,-0.635392330206083,0.786124137520535,-0.690518309753287,888.089119291629,196.368110502382,-3.80879334797162,7.12560455022212,-18,-0.314159265358979
125,-0.643901355925559,0.789472032798668,-0.688949141395518,895.20780450173,196.68205490135,-4.49931165772491,7.11751809748476,-18,-0.314159265358979
126,-0.652379002196035,0.792488540038528,-0.687310943683682,902.321536075348,196.914190565432,-5.18826079912043,7.10942844395405,-18,-0.314159265358979
127,-0.660818217825788,0.795193541936007,-0.685616141077872,909.429374476236,197.064543704955,-5.87557174280411,7.10134427724823,-18,-0.314159265358979
128,-0.669212542877552,0.797606134690919,-0.68387590852486,916.530387068683,197.133178287432,-6.56118788388198,7.09327368880732,-18,-0.314159265358979
129,-0.677556080445272,0.799744609018482,-0.682100252848033,923.623648872448,197.120193389772,-7.24506379240684,7.08522419053411,-18,-0.314159265358979
130,-0.685843467565562,0.801626440388423,-0.6802980953828,930.70824319675,197.025720694211,-7.92716404525487,7.07720273413569,-18,-0.314159265358979
131,-0.694069845740097,0.803268287216251,-0.678477354326681,937.78326216524,196.849922128936,-8.60746214063767,7.06921573252752,-18,-0.314159265358979
132,-0.702230831466883,0.804685995823023,-0.67664502556974,944.847807143355,196.592987652435,-9.28593949496435,7.06126908273895,-18,-0.314159265358979
133,-0.710322487107346,0.805894611078727,-0.674807261037129,951.900989078745,196.255133179142,-9.96258452053409,7.05336818983344,-18,-0.314159265358979
