Time (s),Surge Velocity,Sway Velocity,Yaw Rate,Position X,Position Y,Yaw Angle,Speed U,Rudder Angle (deg),Rudder Angle (rad)
0,0.0,0.0,0.0,0.0,0.0,0.0,7.7175,0,0.0
2,-5.05061946273619e-08,-0.0019406297240008,0.0089331598666846,15.435,-0.0008811090930386,0.0046756812448646,7.71750019348757,0,0.0
4,-8.39532020045812e-07,-0.0044963762197138,0.0163960195595167,30.8700003347604,-0.0035119954557048,0.0264335863861942,7.71750047030922,0,0.0
6,-3.6560903363542e-06,-0.0075006743618982,0.0227314102240254,46.3050011355825,-0.0046300718331113,0.062516309282481,7.71749998888078,0,0.0
8,-9.9476885145021e-06,-0.0108273887102223,0.0281996728380958,61.7399998360119,-0.0013578772224462,0.110808023780843,7.71749764754567,0,0.0
10,-2.11565455607553e-05,-0.014381053452539,0.0329985301092313,77.1749893552194,0.0088829962349471,0.169680122339932,7.71749224255297,20,0.349065850398866
12,-0.0003498780904479,-0.0235775738784306,0.0559458942610391,92.6099570013003,0.0284373247441585,0.237874041966583,7.71718613913638,20,0.349065850398866
14,-0.0044766881645017,-0.056855675808664,0.145708104944202,108.04310537638,0.0394630510394428,0.387242856225535,7.7132328615691,20,0.349065850398866
16,-0.0146613679311475,-0.111592159391345,0.270606161759285,123.464728526664,0.0231508616029791,0.743716146844188,7.70364691569714,20,0.349065850398866
18,-0.0252370387484279,-0.172547537346161,0.376946678387556,138.867293623036,0.0063946915505773,1.34015502710495,7.6941979515533,20,0.349065850398866
20,-0.036672107928994,-0.237455737562858,0.46841856005294,154.250849472955,0.0395870117938075,2.14146414310967,7.68449753301525,20,0.349065850398866
22,-0.049403079113816,-0.30439946876058,0.547491038158347,169.614205138484,0.168271545548281,3.11927127923128,7.67413639601785,20,0.349065850398866
24,-0.0638028620810062,-0.371707124665391,0.615748097267046,184.954570506684,0.434122833628571,4.24966119580917,7.66271792939792,20,0.349065850398866
26,-0.0801583497496329,-0.437903421656008,0.674177507328851,200.267349715361,0.875506367990991,5.51155508458771,7.64988541674626,20,0.349065850398866
28,-0.0986549895464457,-0.501699022226305,0.723416537930362,215.546058641701,1.52770081824256,6.88564647559555,7.6353455195044,20,0.349065850398866
30,-0.119368837266582,-0.562004354099948,0.76395162999946,230.782357132119,2.42287019569352,8.35380615396349,7.61888745553627,20,0.349065850398866
32,-0.142267228689128,-0.617952819774403,0.796266408923604,245.966191257721,3.58987921961687,9.89886132144079,7.60039585988844,20,0.349065850398866
34,-0.167218426416628,-0.66892010622073,0.820933743196101,261.086035485959,5.05404605590693,11.504643080006,7.5798552722924,20,0.349065850398866
36,-0.194009114397473,-0.714529990186023,0.838653061062522,276.129214296641,6.83691868593014,13.1561900537795,7.55734531516322,20,0.349065850398866
38,-0.222367171045508,-0.754642303928262,0.850241547611624,291.082272644044,8.95614253259067,14.8400020597834,7.53302735495827,20,0.349065850398866
40,-0.251986348740511,-0.789324103697002,0.856593904814605,305.931359096791,11.4254598171256,16.5442583716105,7.507125056759,20,0.349065850398866
42,-0.282549567148941,-0.818809034606157,0.858627646175647,320.662586634275,14.2548511297837,18.2589461802317,7.47990215003544,20,0.349065850398866
44,-0.313748347151471,-0.843451584541774,0.857228958404771,335.262343430633,17.4508035671064,19.9758783060788,7.45164069937107,20,0.349065850398866
46,-0.345297086819182,-0.863682496096502,0.853209351567198,349.717536971855,21.0166724357965,21.6886071059752,7.4226223969144,-20,-0.349065850398866
48,-0.372710648743766,-0.866424408326931,0.804255394104486,364.015447771794,24.9577899045554,23.3773991314538,7.39571645411529,-20,-0.349065850398866
50,-0.39621407278206,-0.847105280766152,0.707185389708913,378.142407479114,29.2964300868899,24.9425570484469,7.37012991641134,-20,-0.349065850398866
52,-0.417919722382541,-0.806917195045685,0.575033392932584,392.087111887373,34.0324482933752,26.294457412271,7.34404436186507,-20,-0.349065850398866
54,-0.440300411736026,-0.747984879188279,0.419866052957647,405.842966837303,39.1413348272357,27.3691032006586,7.31553929843342,-20,-0.349065850398866
56,-0.458358922906598,-0.684321809911279,0.28899202981253,419.412631575241,44.5771664156082,28.1392106372056,7.29132536077393,-20,-0.349065850398866
58,-0.471250023722311,-0.620629740360981,0.186141731748373,432.82474435689,50.275903016831,28.6628877242078,7.27277938571802,-20,-0.349065850398866
60,-0.480154505868046,-0.557234955562861,0.102625546723143,446.10750829874,56.1852114737273,28.9914193270284,7.25876577643426,-20,-0.349065850398866
62,-0.485960176581623,-0.494300503380498,0.0325063491293054,459.284982600798,62.2637592442446,29.1602271702616,7.24841370268889,-20,-0.349065850398866
64,-0.489352642546448,-0.431887455021615,-0.0283112270787844,472.377998019965,68.4777034736083,29.1938701761437,7.24103866823454,-20,-0.349065850398866
66,-0.490878029084694,-0.369995193889482,-0.0826721417933521,485.404890874834,74.7983279618726,29.1094007579425,7.23608744792496,-20,-0.349065850398866
68,-0.49098608764487,-0.308590156385808,-0.132557676585084,498.382063834654,81.2004235332132,28.9186520203988,7.23309969584828,-20,-0.349065850398866
70,-0.490059803701743,-0.247627582598755,-0.179340467088852,511.324401764089,87.6611574062933,28.6298245192277,7.2316810777807,-20,-0.349065850398866
72,-0.488435669717463,-0.187068666217184,-0.223954180648004,524.245571847708,94.1592703417278,28.2486102036667,7.2314843412154,-20,-0.349065850398866
74,-0.48641737633678,-0.126894403522252,-0.267007550897183,537.158232477598,100.674498612966,27.7790077782688,7.23219593898626,-20,-0.349065850398866
76,-0.484284711064365,-0.0671168004279248,-0.308862128876758,550.07416986242,107.187154785194,27.2239300833315,7.23352666968139,-20,-0.349065850398866
78,-0.482298820914461,-0.0077876573739291,-0.349686652022422,563.004376624453,113.677825093119,26.585668979661,7.23520537023298,-20,-0.349065850398866
80,-0.480704600716467,0.0509951746928203,-0.389496859296206,575.959083185111,120.127156796763,25.86625968549,7.23697506966366,-20,-0.349065850398866
82,-0.47973074670882,0.109084406122846,-0.42818693328874,588.947750473138,126.515719185529,25.067770313833,7.23859124219253,-20,-0.349065850398866
84,-0.47958792081781,0.166283248244779,-0.465556908540788,601.979031275482,132.823928600869,24.1925309891876,7.23982191663706,-20,-0.349065850398866
86,-0.480465470006439,0.222349120883438,-0.501338949095892,615.06070720745,139.032031922277,23.2433089943773,7.24044942803116,-20,-0.349065850398866
88,-0.482527204473115,0.277001380092021,-0.535224126474723,628.199608597169,145.120144940956,22.223431239156,7.24027355260746,-20,-0.349065850398866
90,-0.485906821812304,0.329932961174393,-0.566890116714453,641.401525302958,151.068342246344,21.1368526919277,7.23911566793073,-20,-0.349065850398866
92,-0.490703630672882,0.380825343950783,-0.596029100646822,654.671117291474,156.856793946207,19.9881691611999,7.23682345413475,-20,-0.349065850398866
94,-0.496979236591464,0.429365715568655,-0.622374215280683,668.011834329353,162.465942095574,18.7825747482933,7.23327553826892,-20,-0.349065850398866
96,-0.504755774200506,0.475264755678855,-0.645722338212408,681.425854011875,167.87670665636,17.5257679372165,7.22838542516892,-20,-0.349065850398866
98,-0.514016094509078,0.518273229879292,-0.665950940564561,694.914046285645,173.070707845858,16.2238148180465,7.22210409212414,-20,-0.349065850398866
100,-0.524706061884878,0.558195641817253,-0.683027263573323,708.475970518208,178.030489621559,14.8829822772996,7.21442076751345,-20,-0.349065850398866
102,-0.53673882716658,0.594899576928317,-0.697009055050735,722.109908175297,182.739728446598,13.5095570330973,7.20536165143024,-20,-0.349065850398866
104,-0.55000067938889,0.628319995929701,-0.70803730106698,735.812930681804,187.183412741007,12.1096673292384,7.19498662460507,-20,-0.349065850398866
106,-0.564357892890089,0.658458460017722,-0.716322497572059,749.580998620171,191.347981483301,10.6891226468335,7.18338426844045,-20,-0.349065850398866
108,-0.579663911581332,0.685377928781946,-0.722126759219612,763.409085623733,195.221414800072,9.25328326941858,7.17066572435177,-20,-0.349065850398866
110,-0.59576625029745,0.709194236451302,-0.725744317859207,777.291318571826,198.793274302805,7.80696675059651,7.15695801766841,-20,-0.349065850398866
112,-0.612512619579704,0.730065561152441,-0.727482736436559,791.221125159632,202.054695575108,6.35439328794911,7.14239745460251,-20,-0.349065850398866
114,-0.629755954458746,0.748181167802314,-0.727646594264994,805.191380507704,204.998338908975,4.89916760919337,7.12712359335514,-20,-0.349065850398866
116,-0.647358207914629,0.763750493257504,-0.726524680081516,819.19454590395,207.618306757038,3.44429181784401,7.11127413169702,-20,-0.349065850398866
118,-0.665192923516189,0.776993338449259,-0.724381038027232,833.222794653484,209.910037349742,1.9922019310894,7.09498088433071,-20,-0.349065850398866
120,-0.683146711846396,0.788131615058771,-0.721449667580485,847.268121982543,211.870183717815,0.544820447372486,7.07836687557325,-20,-0.349065850398866
122,-0.701119818252545,0.797382818654522,-0.717932330098521,861.322437721217,213.496486300649,-0.896382121685596,7.06154446380563,-20,-0.349065850398866
124,-0.719025991565084,0.804955193456351,-0.713998753608823,875.377641910926,214.787645782885,-2.33032262387648,7.04461434786969,-20,-0.349065850398866
126,-0.73679185580843,0.811044420752479,-0.709788512289389,889.425684488212,215.743201109267,-3.75624197305487,7.02766527708998,-20,-0.349065850398866
128,-0.75435596132878,0.815831593971083,-0.705413935535713,903.458610807867,216.363416018861,-5.17364620298868,7.01077428626853,-20,-0.349065850398866
130,-0.771667658086547,0.819482222680479,-0.700963526236358,917.468595052585,216.649176055707,-6.58225365045194,6.99400729448149,-20,-0.349065850398866
132,-0.788685899166084,0.822146018908866,-0.696505503552654,931.447963617767,216.601896915298,-7.98194907698728,6.97741993292095,-20,-0.349065850398866
134,-0.805378051109384,0.823957248179259,-0.692091210127964,945.389210440449,216.223444178371,-9.3727448339516,6.96105849588714,-20,-0.349065850398866
136,-0.821718761515557,0.825035464225467,-0.687758226422954,959.28500602947,215.51606393452,-10.754748709757,6.94496093626622,-20,-0.349065850398866
138,-0.837688913965175,0.825486483712286,-0.683533112812664,973.128201701482,214.482323460945,-12.1281378256561,6.92915785029605,-20,-0.349065850398866
140,-0.853274685326681,0.825403491527112,-0.679433754874182,986.91183026969,213.125060946135,-13.4931378177687,6.91367341537241,-20,-0.349065850398866
142,-0.868466710049445,0.824868196505757,-0.675471322835193,1000.62910419083,211.44734318847,-14.8500065137993,6.89852625916997,-20,-0.349065850398866
144,-0.883259349190069,0.823951981301895,-0.671651876940385,1014.27341196235,209.452430217243,-16.1990213467998,6.88373024897651,-20,-0.349065850398866
146,-0.897650057753391,0.822717008775982,-0.66797766071838,1027.83831338023,207.143745848855,-17.5404698180396,6.86929519756506,-20,-0.349065850398866
148,-0.911638841688917,0.821217261412643,-0.664448127281474,1041.31753411845,204.524853282054,-18.8746424072859,6.85522748686355,-20,-0.349065850398866
150,-0.925227794956724,0.819499500652556,-0.661060742539589,1054.70495997111,201.59943493802,-20.2018274188474,6.84153061375693,20,0.349065850398866
152,-0.937437950651068,0.814514560663399,-0.647569376392492,1067.99463100348,198.371275853861,-21.5223073378536,6.82881214872355,20,0.349065850398866
154,-0.946087416974206,0.796492888017073,-0.596084579896132,1081.17983648896,194.832425767813,-22.7960695036489,6.8180957231636,20,0.349065850398866
156,-0.952723936445468,0.765100507006053,-0.51325799413798,1094.25326505553,190.974219940991,-23.9502792386666,6.80790525608731,20,0.349065850398866
158,-0.959058830066951,0.720941756983306,-0.406808557237885,1107.20915392137,186.80492128169,-24.9260120854871,6.79678483287563,20,0.349065850398866
160,-0.965251938111031,0.668104818257797,-0.294302270321999,1120.04427603328,182.347873861602,-25.6801535711067,6.78522055186584,20,0.349065850398866
162,-0.967413910796856,0.615620078570126,-0.203745420279868,1132.76903254348,177.644292425012,-26.2211744212536,6.77810078803735,20,0.349065850398866
164,-0.966415888911743,0.563489086936849,-0.128927683131117,1145.40381254935,172.738018016595,-26.5895993428803,6.77455951528107,20,0.349065850398866
166,-0.962922798558587,0.511690049011736,-0.0654359579291215,1157.96633154256,167.664299041608,-26.814515328673,6.77393090284288,20,0.349065850398866
168,-0.957454128267749,0.460182762735753,-0.0100996753673774,1170.47214052418,162.452322944391,-26.9168603552166,6.77569098786562,20,0.349065850398866
170,-0.950426511067163,0.408913891616832,0.0393792189651945,1182.93506305874,157.126982397634,-26.9117050812352,6.77941694951526,20,0.349065850398866
172,-0.94218376091808,0.357822652110564,0.08467610451416,1195.36754945884,151.710128929926,-26.8098609112117,6.78475844742689,20,0.349065850398866
174,-0.933018219472741,0.306846764595366,0.127014147683326,1207.78095403881,146.221477878012,-26.6190320950621,6.79141722818212,20,0.349065850398866
176,-0.923186017604561,0.255928513537278,0.167281607340713,1220.18574622372,140.679272234503,-26.3446560936678,6.79913243696691,20,0.349065850398866
178,-0.912917997594416,0.205020797944888,0.206113119417317,1232.5916664182,135.100776785351,-25.9905290671027,6.80766992112954,20,0.349065850398866
180,-0.902427456277724,0.154093068302475,0.243946368385735,1245.007836028,129.502650287636,-25.5592822605912,6.81681439162723,20,0.349065850398866
182,-0.891915471150427,0.103137026401976,0.28106191224748,1257.44282918936,123.901227693698,-25.0527542720159,6.82636370307689,20,0.349065850398866
184,-0.881574302708919,0.0521719121460508,0.317611599478954,1269.90471211425,118.312733734593,-24.4722899444707,6.83612478289429,20,0.349065850398866
186,-0.871589189991077,0.001249125966116,0.353639517977401,1282.40105468509,112.753441772704,-23.8189865808172,6.84591092396861,20,0.349065850398866
188,-0.862138749360893,-0.0495441484808739,0.389098434119308,1294.93891807703,107.239786633981,-23.0939008375493,6.85554027771793,20,0.349065850398866
190,-0.853394135019757,-0.100082729648665,0.423864001314887,1307.52482174419,101.788436478743,-22.2982241056628,6.86483545894802,20,0.349065850398866
192,-0.845517114273003,-0.150203077591332,0.457748489675704,1320.1646930521,96.4163262911812,-21.4334299024669,6.87362420752274,20,0.349065850398866
194,-0.838657243029194,-0.199705210077154,0.490515301935259,1332.86380312755,91.1406540695586,-20.5013935380589,6.8817410475883,20,0.349065850398866
196,-0.832948387090017,-0.248357209698542,0.521895024187769,1345.62669305913,85.9788402001275,-19.5044820415487,6.88902984566265,20,0.349065850398866
198,-0.828504908022424,-0.295902432249341,0.551603184664339,1358.45709530638,80.948450762965,-18.4456111153915,6.89534709979869,20,0.349065850398866
200,-0.825417899680213,-0.342069235377087,0.579359280081266,1371.35785590988,76.0670865972202,-17.3282658450768,6.90056570429844,20,0.349065850398866
202,-0.823751900975192,-0.386582703445436,0.604906046773702,1384.33086364234,71.352241724041,-16.1564830734587,6.9045788459117,20,0.349065850398866
204,-0.823542502289686,-0.429177510454857,0.628027508244307,1397.37699239233,66.8211369511478,-14.9347956417271,6.90730362121982,20,0.349065850398866
206,-0.824795194757863,-0.469610812766634,0.648564132852286,1410.49606264578,62.4905368039897,-13.668141771729,6.9086839446942,20,0.349065850398866
208,-0.827485684531465,-0.50767396609353,0.666423560880401,1423.68682682535,58.3765598987586,-12.3617461768065,6.90869235986163,20,0.349065850398866
210,-0.8315617245916,-0.54320195611762,0.681585812853439,1436.94698149437,54.4944940435174,-11.0209823812119,6.90733047550676,20,0.349065850398866
212,-0.836946333951261,-0.576079712367391,0.694102587191057,1450.27320720857,50.8586273843765,-9.65122757835991,6.90462791078405,20,0.349065850398866
214,-0.843542112714128,-0.606244885996995,0.704091041473412,1463.66123440741,47.4821056718258,-8.25772174895582,6.90063981801522,20,0.349065850398866
216,-0.851236251264571,-0.633687126925808,0.711723149897422,1477.10593153829,44.3768233354623,-6.84544160083932,6.89544322302996,20,0.349065850398866
218,-0.85990578967342,-0.65844430199008,0.717212193468406,1490.60140993012,41.5533528868897,-5.4189974393629,6.88913254715917,20,0.349065850398866
220,-0.869422709287983,-0.680596382338351,0.720798096156361,1504.141138997,39.0209137267051,-3.98255784615837,6.88181473270079,20,0.349065850398866
222,-0.879658517765571,-0.700257862316612,0.722733182456284,1517.71806521965,36.7873782318243,-2.53980365358735,6.87360438270215,20,0.349065850398866
224,-0.890488098299812,-0.717569560314809,0.723269579806351,1531.32472893197,34.8593104570514,-1.09390970721806,6.86461925964189,20,0.349065850398866
226,-0.901792709201559,-0.732690530226576,0.7226490346514,1544.95337403409,33.2420311327508,0.352449316621941,6.8549763885025,20,0.349065850398866
228,-0.913462121951588,-0.745790628634726,0.721095459419037,1558.59604711555,31.9397019181211,1.79707407698733,6.84478890161537,20,0.349065850398866
230,-0.925395962837599,-0.75704408348977,0.718810154694153,1572.24468387254,30.9554219594475,3.23820219195786,6.83416366470577,20,0.349065850398866
232,-0.937504371721136,-0.766624229011789,0.715969393063677,1585.89118196419,30.291330494012,4.67446153801106,6.82319964737867,20,0.349065850398866
234,-0.949708113730828,-0.774699428098378,0.712723911258635,1599.52746046815,29.9487102941156,6.10481973247141,6.81198695093779,20,0.349065850398866
236,-0.961938281499665,-0.781430103801321,0.709199816021313,1613.14550682571,29.9280879447844,7.52853336842387,6.80060638028655,20,0.349065850398866
238,-0.974135713741372,-0.786966742432789,0.705500437554474,1626.73741262219,30.2293281261854,8.94509958975055,6.78912943983863,20,0.349065850398866
240,-0.986250236707997,-0.79144870470009,0.701708733272716,1640.29539977118,30.8517201190243,10.3542116926956,6.77761863990518,20,0.349065850398866
242,-0.998239813219563,-0.795003678598147,0.697889929970437,1653.81183871641,31.7940556127739,11.7557196876497,6.76612801435483,20,0.349065850398866
244,-1.01006966276411,-0.797747619945058,0.694094177787784,1667.27926018852,33.0546975578097,13.1495961744806,6.75470376804197,20,0.349065850398866
246,-1.02171139749297,-0.799785046478891,0.690359064722157,1680.69036190358,34.6316402756256,14.5359074708004,6.74338499049508,20,0.349065850398866
248,-1.0331422035828,-0.801209574361152,0.686711901528147,1694.03801140386,36.5225613531418,15.9147896624957,6.73220438879951,20,0.349065850398866
250,-1.04434408549998,-0.802104608543819,0.683171732956431,1707.31524604607,38.724866030135,17.2864290904077,6.72118900658759,20,0.349065850398866
252,-1.05530318187644,-0.802544118934766,0.679751063797562,1720.51527095558,41.2357248749866,18.6510467167715,6.71036090730242,20,0.349065850398866
254,-1.06600915549405,-0.802593451809393,0.676457309480369,1733.63145559641,44.0521055615132,20.0088858038384,6.69973780855891,-20,-0.349065850398866
256,-1.07558396245251,-0.79951265430457,0.664034863546588,1746.65732946157,47.170799531727,21.3602023638467,6.68986316259337,-20,-0.349065850398866
258,-1.08209161514363,-0.784459709476039,0.61697662053574,1759.58571340271,50.5991521746392,22.6687556422606,6.68161817747867,-20,-0.349065850398866
260,-1.08690042748096,-0.757153765474866,0.540981677172955,1772.40876770979,54.3452793130872,23.867912601175,6.6736895729171,-20,-0.349065850398866
262,-1.0915187246909,-0.718226444301472,0.443100325405599,1785.1200315316,58.4019454555697,24.9031918747993,6.6647938517287,-20,-0.349065850398866
264,-1.09604316259516,-0.671530993142364,0.339594542131611,1797.71544493398,62.7479939483877,25.7347065115394,6.65542218979127,-20,-0.349065850398866
