Time (s),Surge Velocity,Sway Velocity,Yaw Rate,Position X,Position Y,Yaw Angle,Speed U,Rudder Angle (deg),Rudder Angle (rad)
0,0.0,0.0,0.0,0.0,0.0,0.0,7.7175,0,0.0
2,-5.05061946273619e-08,-0.0019406297240008,0.0089331598666846,15.435,-0.0008811090930386,0.0046756812448646,7.71750019348757,0,0.0
4,-8.39532020045812e-07,-0.0044963762197138,0.0163960195595167,30.8700003347604,-0.0035119954557048,0.0264335863861942,7.71750047030922,0,0.0
6,-3.6560903363542e-06,-0.0075006743618982,0.0227314102240254,46.3050011355825,-0.0046300718331113,0.062516309282481,7.71749998888078,0,0.0
8,-9.9476885145021e-06,-0.0108273887102223,0.0281996728380958,61.7399998360119,-0.0013578772224462,0.110808023780843,7.71749764754567,0,0.0
10,-2.11565455607553e-05,-0.014381053452539,0.0329985301092313,77.1749893552194,0.0088829962349471,0.169680122339932,7.71749224255297,11,0.191986217719376
12,-0.0003498780904479,-0.0235775738784306,0.0559458942610391,92.6099570013003,0.0284373247441585,0.237874041966583,7.71718613913638,11,0.191986217719376
14,-0.0031654667671859,-0.0526793310925606,0.13150513725161,108.04310537638,0.0394630510394428,0.387242856225535,7.71451439836317,11,0.191986217719376
16,-0.0063476258356484,-0.0872184001669603,0.199159534403216,123.470698625968,0.0392780531365854,0.685380669324323,7.71164560822839,11,0.191986217719376
18,-0.0097932518693064,-0.12491358215693,0.257582595540028,138.892529223916,0.0575893440329489,1.11392973386102,7.70871887658298,11,0.191986217719376
20,-0.0136663693384281,-0.164695025432465,0.308711243243754,154.308294694403,0.12242126697551,1.65547271194718,7.70559388109148,11,0.191986217719376
22,-0.0181201139181203,-0.205704186945849,0.35394512985681,169.717177970574,0.259343425809444,2.29617860728503,7.70212729333457,11,0.191986217719376
24,-0.0232906550375875,-0.247237818080353,0.394281099363266,185.117747596313,0.491959289875366,3.0247994616848,7.69818056314582,11,0.191986217719376
26,-0.0292934860703902,-0.288709139401346,0.430419045321456,200.507895547324,0.842239329749,3.83192083320342,7.69362543720472,11,0.191986217719376
28,-0.0362210157368018,-0.329621822882984,0.462845203917548,215.88480244243,1.33073304803094,4.70941203859855,7.68834815680223,11,0.191986217719376
30,-0.0441410374430833,-0.369553383039917,0.491897570463469,231.244925100893,1.97668869565171,5.65003353843442,7.6822527601719,11,0.191986217719376
32,-0.0530959728968931,-0.408145260683593,0.517816910625674,246.584004070319,2.79810498276546,6.64716758590086,7.67526362052098,11,0.191986217719376
34,-0.0631029161186232,-0.445097377132213,0.540785868138507,261.897089824992,3.81173553307693,7.69464468282724,7.66732720006533,11,0.191986217719376
36,-0.0741545217089477,-0.480165335239826,0.560957995584953,277.178586414582,5.0330638838118,8.78664301501119,7.65841294588365,11,0.191986217719376
38,-0.0862207362681547,-0.513158809042747,0.578478142402488,292.422310849364,6.47626417939424,9.91764146322605,7.64851326496606,11,0.191986217719376
40,-0.099251299110512,-0.543940026631544,0.593495468979232,307.621565763248,8.15416009561996,11.0824095482855,7.63764256961376,-11,-0.191986217719376
42,-0.112400820650765,-0.567184866241093,0.588472783623103,322.769222155095,10.0781918319088,12.2760201836417,7.62622004667,-11,-0.191986217719376
44,-0.124814499965381,-0.56558548250313,0.517322048090968,337.85609768495,12.2775248643027,13.4247652412772,7.61372182578627,-11,-0.191986217719376
46,-0.138376360783306,-0.540757708192106,0.404958260848241,352.868693377447,14.7793307330099,14.4035828731612,7.59839022671924,-11,-0.191986217719376
48,-0.149605724077907,-0.508654893982105,0.309553218668376,367.799970774229,17.5687036279309,15.163138087676,7.58496892364803,-11,-0.191986217719376
50,-0.158296803470514,-0.473030754755936,0.23254061907192,382.657626175167,20.6016078505021,15.7417736697932,7.57398911151624,-11,-0.191986217719376
52,-0.164877671280974,-0.435159850697033,0.169101533281233,397.450592132233,23.8397461337215,16.1736871953467,7.56514825604389,-11,-0.191986217719376
54,-0.169714945037576,-0.395909901623217,0.115663796613973,412.187421161692,27.2511689341658,16.4841047058836,7.55816140910721,-11,-0.191986217719376
56,-0.173118781026437,-0.355871202457111,0.0695932526279132,426.876161630605,30.8086713743646,16.691611137994,7.55276984224591,-11,-0.191986217719376
58,-0.175351989039837,-0.315443439382601,0.0289530171608492,441.524339934673,34.4885845147002,16.8098978713588,7.54874169532114,-11,-0.191986217719376
60,-0.17663936424627,-0.274895165049508,-0.0076780953817304,456.138988000668,38.2698714405643,16.8490598353947,7.54586949791923,-11,-0.191986217719376
62,-0.177175811587671,-0.234405300119829,-0.0413400367403343,470.72668526301,42.1334530359032,16.8165545306357,7.54396677558168,-11,-0.191986217719376
64,-0.177132914302976,-0.194092534542084,-0.072790146746243,485.293600242376,46.0617048379268,16.7179113347274,7.54286468783764,-11,-0.191986217719376
66,-0.176664023099659,-0.154036400708901,-0.102575184647492,499.845525132589,50.0380809614788,16.5572578801797,7.54240906098694,-11,-0.191986217719376
68,-0.175908078242601,-0.114292496420871,-0.131083920261392,514.387900987093,54.0468327264514,16.3377128621716,7.54245792093364,-11,-0.191986217719376
70,-0.174992392936065,-0.0749035156984239,-0.158585640584102,528.925833147794,58.0727984656609,16.0616812788463,7.54287952570378,-11,-0.191986217719376
72,-0.174034599706213,-0.0359072113835618,-0.185258518944647,543.464097522508,62.1012475322169,15.7310781468528,7.54355085972507,-11,-0.191986217719376
74,-0.173143925280121,0.0026579429198022,-0.211210733461171,558.007138743165,66.1177662905845,15.3474994102125,7.54435654292819,-11,-0.191986217719376
76,-0.172421926858413,0.040748865750858,-0.236496438987737,572.559061410973,70.1081773100052,14.9123534085185,7.54518810897793,-11,-0.191986217719376
78,-0.171962797875161,0.0783153943597727,-0.261128122413572,587.123615701935,74.058485427782,14.4269623713652,7.54594361028783,-11,-0.191986217719376
80,-0.171853334652006,0.115298974227454,-0.285086447388085,601.704178636364,77.954846068689,13.8926405738244,7.54652750950629,-11,-0.191986217719376
82,-0.172172645522953,0.151632331638982,-0.30832837724712,616.303732338793,81.7835523808482,13.3107537453552,7.54685081674587,-11,-0.191986217719376
84,-0.17299167916756,0.187239990298295,-0.330794122394263,630.924840637307,85.5310385123879,12.6827628760292,7.54683142895592,-11,-0.191986217719376
86,-0.174372646988675,0.222039511139129,-0.352413269129978,645.569625368834,89.1838968068298,12.0102545717322,7.54639462314651,-11,-0.191986217719376
88,-0.176368413364739,0.255943336011671,-0.373110297465652,660.239743757795,92.7289069160727,11.2949594751353,7.54547364969203,-11,-0.191986217719376
90,-0.179021925619517,0.288861106539507,-0.39280957842876,674.936368205586,96.1530748825958,10.5387599164504,7.54401036695911,-11,-0.191986217719376
92,-0.182365751034909,0.320702314853998,-0.411439853570931,689.660169753852,99.4436801846392,9.74368782443677,7.54195585539185,-11,-0.191986217719376
94,-0.186421780136164,0.351379128713365,-0.428938140003193,704.411306354719,102.588328623214,8.91191395593865,7.53927094922333,-11,-0.191986217719376
96,-0.191201143406246,0.380809224776343,-0.445252973089434,719.189416891069,105.575008808008,8.04572963467257,7.53592662812207,-11,-0.191986217719376
98,-0.196704372875384,0.408918464509706,-0.460346894831552,733.993621641712,108.392149915698,7.14752237102155,7.53190421975703,-11,-0.191986217719376
100,-0.202921821731516,0.435643259690423,-0.47419811594344,748.822529590184,111.028678385875,6.21974691127051,7.52719537723199,-11,-0.191986217719376
102,-0.209834335813426,0.460932499003695,-0.486801318261415,763.674252649682,113.474071312318,5.26489339131007,7.52180181165682,-11,-0.191986217719376
104,-0.217414152478531,0.484748942044653,-0.498167614081968,778.546426543734,115.718404491781,4.28545431246272,7.51573477825058,-11,-0.191986217719376
106,-0.225625986742338,0.507070028578777,-0.508323731792875,793.436237768526,117.752393404644,3.28389199733423,7.50901433241463,-11,-0.191986217719376
108,-0.234428253267594,0.527888094627247,-0.517310544563418,808.340455793421,119.567425802571,2.26260802002455,7.50166838824498,-11,-0.191986217719376
110,-0.243774366636941,0.547210028049226,-0.525181094254173,823.255469451337,121.155585037479,1.22391585198018,7.49373162433682,-11,-0.191986217719376
112,-0.253614061555223,0.565056430667414,-0.531998282023497,838.177326343447,122.5096637466,0.170017648641991,7.48524428939713,-11,-0.191986217719376
114,-0.263894678692662,0.581460378771767,-0.537832399231877,853.101774037364,123.623167972176,-0.897014244079214,7.47625096274212,-11,-0.191986217719376
116,-0.274562369761851,0.596465887762939,-0.542758658800934,868.024301870222,124.4903122077,-1.97525082670189,7.46679932252635,-11,-0.191986217719376
118,-0.285563185779595,0.610126190030559,-0.546854861818791,882.940182266395,125.106006199929,-3.06291509849042,7.45693896839217,-11,-0.191986217719376
120,-0.296844023897014,0.622501929409275,-0.550199301596944,897.84451062746,125.46583458232,-4.15838615111743,7.44672033634883,-11,-0.191986217719376
122,-0.308353419431277,0.633659363002658,-0.552868972356538,912.732243031011,125.566030566509,-5.26019921652265,7.43619373340112,-11,-0.191986217719376
124,-0.320042179827174,0.643668644384896,-0.554938116351177,927.598231166699,125.403444979383,-6.36704229906808,7.42540850896437,-11,-0.191986217719376
126,-0.331863865588651,0.652602243628766,-0.556477114477298,942.437254126787,124.975511916069,-7.47775007461361,7.41441237039807,-11,-0.191986217719376
128,-0.343775129459895,0.660533541297448,-0.557551702962307,957.244046842138,124.2802122004,-8.59129573716547,7.40325084173167,-11,-0.191986217719376
130,-0.355735929296015,0.667535616952955,-0.558222483070022,972.013325104739,123.316035721978,-9.70678143026005,7.391966858192,-11,-0.191986217719376
132,-0.367709632342589,0.673680238774432,-0.558544681536793,986.739807240322,122.081943570141,-10.8234278287593,7.38060048455577,-11,-0.191986217719376
134,-0.379663029360337,0.679037049936295,-0.558568115684532,1001.41823258809,120.577330725099,-11.940563349669,7.36918874251925,11,0.191986217719376
136,-0.390055603226846,0.669644480474415,-0.513550914990861,1016.04297179364,118.797383239923,-13.0421769984433,7.35797968997143,11,0.191986217719376
138,-0.400327635058696,0.639715025972956,-0.419028372738738,1030.60503195146,116.718827690406,-14.0274002327043,7.34508316717492,11,0.191986217719376
140,-0.409310435696374,0.59905656063408,-0.319014675037899,1045.09470220476,114.341765753431,-14.8126026542512,7.33270096694493,11,0.191986217719376
142,-0.415143039849061,0.556475286407078,-0.238581735077289,1059.51568849883,111.703566125686,-15.4083377829767,7.32352933481165,11,0.191986217719376
144,-0.418424041162503,0.512797306565191,-0.172434053908417,1073.87754177867,108.845760037784,-15.8509117187898,7.31706709894751,11,0.191986217719376
146,-0.41963624777878,0.468564591161012,-0.116707842914855,1088.18928848345,105.802558807878,-16.1668109125393,7.31289054492642,11,0.191986217719376
148,-0.419171177556321,0.424128843345201,-0.0685846658140886,1102.45933757914,102.602800529223,-16.3753583308597,7.31064216579292,11,0.191986217719376
150,-0.417350456990153,0.379712935338995,-0.0260064806660176,1116.69549129969,99.2713796512852,-16.490650458861,7.31001814386056,11,0.191986217719376
152,-0.414443000121158,0.335452592294831,0.0125308992098451,1130.90499572814,95.8302964945775,-16.5229663869611,7.31075714171635,11,0.191986217719376
154,-0.41067824486964,0.291425542073545,0.0481262932020417,1145.09460042387,92.2994304772016,-16.4797951256139,7.31263105918924,11,0.191986217719376
156,-0.406256125523427,0.247672409957136,0.0815796048770304,1159.27061302761,88.697112892324,-16.366588692212,7.31543769126121,11,0.191986217719376
158,-0.401354476445771,0.204211997142598,0.113468167424891,1173.4389430673,85.0405536745542,-16.1873186144216,7.31899500352334,11,0.191986217719376
160,-0.396134452699344,0.161052625700132,0.144201643147121,1187.60513319154,81.3461608777052,-15.9448913774235,7.32313672038464,11,0.191986217719376
162,-0.390744421833779,0.118200647938912,0.174061693092242,1201.77437791666,77.6297802752076,-15.6414623399495,7.32770896633887,11,0.191986217719376
164,-0.385322664799715,0.0756668429495657,0.203230868702587,1215.95153078725,73.9068744244037,-15.2786761681088,7.33256775938325,11,0.191986217719376
166,-0.37999913295236,0.0334711718802814,0.231813925198919,1230.14110117786,70.1926547968558,-14.8578536126012,7.33757720867535,11,0.191986217719376
168,-0.37489644228147,-0.0083538098514853,0.259853872263662,1244.34724208749,66.5021765027379,-14.3801385357953,7.34260830985556,11,0.191986217719376
170,-0.370130241982968,-0.0497607057124911,0.287344449434588,1258.57373033805,62.8504022589458,-13.846614804314,7.34753826045542,11,0.191986217719376
172,-0.365809068270589,-0.0906860999297092,0.314240258587162,1272.82394064801,59.2522402444054,-13.258399532893,7.35225023543085,11,0.191986217719376
174,-0.362033782061203,-0.131050400073704,0.340465444393715,1287.10081513647,55.7225591324328,-12.6167168825038,7.35663357049937,11,0.191986217719376
176,-0.358896687195358,-0.170758672330331,0.365921544352385,1301.40682992273,52.2761827395687,-11.9229549756391,7.36058430013511,11,0.191986217719376
178,-0.356480430540791,-0.209702435573354,0.390494906013919,1315.74396060741,48.9278662785712,-11.1787073649376,7.36400598950373,11,0.191986217719376
180,-0.35485679293213,-0.247762351990807,0.414063875417914,1330.11364853033,45.6922560709149,-10.3857997961362,7.36681078741993,11,0.191986217719376
182,-0.354085486614554,-0.284811706301697,0.436505792325273,1344.51676976747,42.5838346921979,-9.54630268568497,7.36892061322294,11,0.191986217719376
184,-0.354213077049277,-0.320720509978659,0.457703687105999,1358.95360882346,39.6168538229543,-8.66252973639699,7.37026837742142,11,0.191986217719376
186,-0.355272141583671,-0.355360010925095,0.477552468537564,1373.42383886811,36.8052574819181,-7.73702338254616,7.37079912740852,11,0.191986217719376
188,-0.357280762710489,-0.388607343362321,0.495964330198792,1387.92651013644,34.162598745954,-6.77252821411578,7.37047100857752,11,0.191986217719376
190,-0.360242429170573,-0.420350027206045,0.512873092217879,1402.46004775554,31.7019534249166,-5.77195408654846,7.36925593997787,11,0.191986217719376
192,-0.364146385563599,-0.450490028179305,0.528237235797482,1417.02225979114,29.4358343805083,-4.7383311747176,7.36713992295748,11,0.191986217719376
194,-0.368968433694221,-0.478947122075066,0.542041473470068,1431.6103557527,27.3761101924628,-3.67475967710381,7.3641229299039,11,0.191986217719376
196,-0.374672151025248,-0.505661366337347,0.554296814107574,1446.22097520579,25.5339316472294,-2.58435713489255,7.36021835525858,11,0.191986217719376
198,-0.381210458069852,-0.530594561849954,0.565039208691945,1460.85022557027,23.9196690526176,-1.47020634920073,7.35545204811359,11,0.191986217719376
200,-0.388527441422882,-0.553730676433043,0.574326979744495,1475.49372768943,22.5428627012783,-0.335306646676539,7.34986098007299,11,0.191986217719376
202,-0.396560325061863,-0.575075286896506,0.582237326127928,1490.1466673859,21.4121879813406,0.817469210895221,7.34349162930567,11,0.191986217719376
204,-0.405241480326251,-0.594654167847205,0.588862244237871,1504.80385100524,20.5354357475494,1.98541079076611,7.3363981787986,11,0.191986217719376
206,-0.414500373542491,-0.612511205409857,0.594304213189099,1519.45976289745,19.9195077084546,3.16599743550364,7.32864063253146,11,0.191986217719376
208,-0.424265367101,-0.628705839509877,0.598671960058723,1534.10862288776,19.5704258319732,4.35691708337154,7.3202829482986,11,0.191986217719376
210,-0.434465311630154,-0.643310240442139,0.602076561771143,1548.74444201339,19.4933541793761,5.55607675990715,7.31139127235413,11,0.191986217719376
212,-0.445030890390943,-0.656406408335727,0.604628065579848,1563.3610751138,19.6926311763617,6.76160551472571,7.30203234196632,11,0.191986217719376
214,-0.455895699258938,-0.66808335379394,0.606432732753324,1577.95226921595,20.1718101229584,7.97185090245986,7.29227210052928,11,0.191986217719376
216,-0.466997064617705,-0.678434480760279,0.607590939944882,1592.51170701533,20.9337057133046,9.18537027950361,7.2821745489017,11,0.191986217719376
218,-0.478276616035781,-0.687555254114579,0.608195716199238,1607.03304508769,21.9804444489534,10.4009182269739,7.27180083819647,11,0.191986217719376
220,-0.489680640447513,-0.695541198847137,0.60833185338714,1621.5099467531,23.3135170452583,11.6174313440353,7.26120859455335,-11,-0.191986217719376
222,-0.499785426249828,-0.689300358203593,0.565921770052674,1635.93572967388,24.9381694521589,12.8194823097732,7.25055436859453,-11,-0.191986217719376
224,-0.509879113048124,-0.66364020970746,0.476885105758477,1650.30050738062,26.8768229108557,13.9118612566689,7.23810867409198,-11,-0.191986217719376
226,-0.51874621813779,-0.628073500112438,0.38295209957589,1664.59365426469,29.1296113719019,14.8159342184441,7.22610076966956,-11,-0.191986217719376
228,-0.524578032792175,-0.59095095908168,0.307901289485671,1678.81731510874,31.6613651270684,15.5422962169053,7.21715660508905,-11,-0.191986217719376
230,-0.527924946975315,-0.553029705573523,0.246798631199938,1692.97935976939,34.4330803737322,16.1260571396492,7.21081349767983,-11,-0.191986217719376
232,-0.529229724098618,-0.51481082324046,0.196008372927768,1707.08733293362,37.4128434085444,16.5931567240693,7.20668160411801,-11,-0.191986217719376
234,-0.528849084316633,-0.476621963977965,0.152851296849853,1721.14832214157,40.5740227007953,16.9627783599995,7.20443408493002,-11,-0.191986217719376
236,-0.527072848044764,-0.438671443220701,0.115349447705313,1735.16893890834,43.8939290213976,17.2491248622061,7.20379589262997,-11,-0.191986217719376
238,-0.524139510780373,-0.401084880523999,0.082038829255989,1749.15534970961,47.3528236561778,17.462719978572,7.20453358721097,-11,-0.191986217719376
240,-0.52024840325977,-0.363930714426452,0.0518331157626546,1763.11332487822,50.9331821809767,17.6113627199141,7.20644684374226,-11,-0.191986217719376
242,-0.51556899137844,-0.327238361442927,0.0239247747878974,1777.04828983593,54.6191450754389,17.700829300839,7.20936163596643,-11,-0.191986217719376
244,-0.510247917335797,-0.291011358493215,-0.0022866858965302,1790.9653715299,58.3961050645886,17.7353919875246,7.2131248563878,-11,-0.191986217719376
246,-0.504414306494816,-0.255236997499039,-0.0272468984316615,1804.86943721544,62.2503949587218,17.7182050246666,7.21760009606666,-11,-0.191986217719376
248,-0.498183758349061,-0.21989345817963,-0.0512847030725925,1818.76512482451,66.1690498779081,17.6515938332308,7.22266433734223,-11,-0.191986217719376
250,-0.49166134061697,-0.184955127649604,-0.0746400291948321,1832.65686513778,70.1396250407397,17.5372735781755,7.22820536030059,-11,-0.191986217719376
252,-0.484943823684303,-0.150396586703887,-0.0974844072504238,1846.54889639097,74.1500555366196,17.3765159553636,7.23411970987863,-11,-0.191986217719376
254,-0.47812132933137,-0.11619560033122,-0.119936140976686,1860.44527208321,78.1885482673712,17.1702778386162,7.24031110898339,-11,-0.191986217719376
256,-0.471278520464107,-0.0823353498699653,-0.142071609186291,1874.34986276668,82.2434989592463,16.9193016732121,7.24668923304467,-11,-0.191986217719376
258,-0.464495424254051,-0.0488060720801779,-0.163933768888586,1888.26635256066,86.3034291109168,16.6241947791816,7.25316878394978,-11,-0.191986217719376
260,-0.457847956789105,-0.0156062176490475,-0.185538648050153,1902.19823108719,90.3569391681905,16.2854927377997,7.25966881768896,-11,-0.191986217719376
262,-0.451408200692127,0.0172567970280384,-0.206880412481171,1916.14878148906,94.3926752497701,15.9037105682025,7.26611229152239,-11,-0.191986217719376
264,-0.445244476351084,0.0497661988331801,-0.227935442616468,1930.12106517084,98.399307493276,15.4793843120991,7.27242580407586,-11,-0.191986217719376
