Time (s),Surge Velocity,Sway Velocity,Yaw Rate,Position X,Position Y,Yaw Angle,Speed U,Rudder Angle (deg),Rudder Angle (rad)
0,0,0,0,0,0,0,7.7175,0,0
1,0,-0.000881109093038606,0.00467568124486468,7.7175,0,0,7.71750005029823,0,0
2,-5.05061946273619e-08,-0.00194062972400084,0.00893315986668464,15.435,-0.000881109093038606,0.00467568124486468,7.71750019348757,0,0
3,-2.78632950096638e-07,-0.00315310473839392,0.0128247452746449,23.1525000821634,-0.00219194425960544,0.0136088411115493,7.71750036549205,0,0
4,-8.39532020045812e-07,-0.00449637621971385,0.0163960195595167,30.8700003347604,-0.00351199545570486,0.0264335863861942,7.71750047030922,0,0
5,-1.90513560301529e-06,-0.00595115988821997,0.0196867033367701,38.5875007483234,-0.00444787904127373,0.0428296059457109,7.71750038940975,0,0
6,-3.6560903363542e-06,-0.00750067436189825,0.0227314102240254,46.3050011355825,-0.00463007183311137,0.062516309282481,7.71749998888078,0,0
7,-6.27604792635639e-06,-0.00913031821971858,0.0255603042743371,54.022501069626,-0.00371006403465275,0.0852477195065063,7.71749912484287,0,0
8,-9.9476885145021e-06,-0.0108273887102223,0.0281996728380958,61.7399998360119,-0.00135787722244622,0.110808023780843,7.71749764754567,0,0
9,-1.48500112457183e-05,-0.0125808367382528,0.030672425720993,69.4574963955485,0.00274009952320731,0.139007696618939,7.71749540445279,0,0
10,-2.11565455607553e-05,-0.014381053452539,0.0329985301092313,77.1749893552194,0.00888299623494717,0.169680122339932,7.71749224255297,30,0.523598775598299
11,-2.90342261149153e-05,-0.0162196843589209,0.0351953895174194,84.892476945317,0.0173571070645734,0.202678652449164,7.71748801007968,30,0.523598775598299
12,-0.000349878090447976,-0.0235775738784306,0.0559458942610391,92.6099570013003,0.0284373247441585,0.237874041966583,7.71718613913638,30,0.523598775598299
13,-0.00162143225673303,-0.0370042944142834,0.0934229199979131,100.327138501398,0.0368990402578293,0.293819936227622,7.71596730099117,30,0.523598775598299
14,-0.00447668816450179,-0.056855675808664,0.145708104944202,108.04310537638,0.0394630510394428,0.387242856225535,7.7132328615691,30,0.523598775598299
15,-0.00954951552556106,-0.0832871294795689,0.21076518567445,115.756336790689,0.0347380010077509,0.532950961169738,7.70840044477755,30,0.523598775598299
16,-0.0174778033774137,-0.116244101062805,0.286414537859027,123.464728526664,0.0231508616029791,0.743716146844188,7.70089959157451,30,0.523598775598299
17,-0.0289028039834982,-0.155449683887763,0.370307340895551,131.16561089186,0.0068623097896968,1.03013068470321,7.69016849274537,30,0.523598775598299
18,-0.0404514025682859,-0.196670519864146,0.44729016535419,138.85576015546,-0.0103350846916209,1.40043802559877,7.67956733551519,30,0.523598775598299
19,-0.0522372443904624,-0.239442271102772,0.518048617192011,146.535322233536,-0.0193211672101898,1.84772819095296,7.66900161127415,30,0.523598775598299
20,-0.0643702625430879,-0.283330267838089,0.583120393981763,154.204319841507,-0.0114851813666303,2.36577680814497,7.65837259599065,30,0.523598775598299
21,-0.0769535979080894,-0.32792311357272,0.642917712657804,161.862622096092,0.0213385360932858,2.94889720212673,7.64758019839837,30,0.523598775598299
22,-0.0900809714560999,-0.37282889252528,0.697749399490307,169.509921098741,0.0869194405534752,3.59181491478453,7.63652554635256,30,0.523598775598299
23,-0.103834411604632,-0.417673687187944,0.747842522721984,177.145714462386,0.192665021096482,4.28956431427484,7.62511344183711,30,0.523598775598299
24,-0.118282316072309,-0.462102075891099,0.793363345923703,184.769293229191,0.345641448070194,5.03740683699682,7.61325474000852,30,0.523598775598299
25,-0.133477879746253,-0.505779224462756,0.834437252485578,192.379734961405,0.552581963263545,5.83077018292053,7.60086864406933,30,0.523598775598299
26,-0.149457949214187,-0.548394125361019,0.871167172132229,199.975901982711,0.819884654655408,6.66520743540611,7.5878848567432,30,0.523598775598299
27,-0.166242372183118,-0.589663488382416,0.90364996283825,207.556444814349,1.15360156597117,7.53637460753834,7.57424549319561,30,0.523598775598299
28,-0.1838338981198,-0.629335765402345,0.931990193818771,215.119810802978,1.55942136987784,8.44002457037659,7.55990664229614,30,0.523598775598299
29,-0.202218658674922,-0.66719480992006,0.956310852670972,222.664257795683,2.04264803976308,9.37201476419536,7.54483946506837,30,0.523598775598299
30,-0.221367218050684,-0.703062735719972,0.976760660528878,230.187872509818,2.60817804507881,10.3283256168663,7.5290307407377,30,0.523598775598299
31,-0.241236141002851,-0.736801644147905,0.993517903656655,237.688593006245,3.26047853522939,11.3050862773952,7.51248280877674,30,0.523598775598299
32,-0.261769986593519,-0.768314024282925,1.00679094434073,245.16423444242,4.00356875176268,12.2986041810519,7.49521290376198,30,0.523598775598299
33,-0.282903605305862,-0.797541776671241,1.01681581753171,252.612517093141,4.84100652717315,13.3053951253926,7.47725193085902,30,0.523598775598299
34,-0.304564599988149,-0.824463949388184,1.0238515142413,260.031095510764,5.77588122418843,14.3222109429243,7.45864277523663,30,0.523598775598299
35,-0.326675809028428,-0.849093387571513,1.02817367097517,267.417587669942,6.81081389397669,15.3460624571656,7.43943827198454,30,0.523598775598299
36,-0.349157682229345,-0.871472572652439,1.03006741527953,274.769603006841,7.9479648464322,16.3742361281408,7.41969898019692,30,0.523598775598299
37,-0.371930442951753,-0.891668961208836,1.02982006622868,282.084768407803,9.18904828975547,17.4043035434203,7.39949090504321,30,0.523598775598299
38,-0.394915959862799,-0.909770128704895,1.02771427394002,289.36075140586,10.5353532573677,18.434123609649,7.378883297082,30,0.523598775598299
39,-0.418039283446371,-0.925878988614453,1.02402202969279,296.595280078151,11.98776972717,19.461837883589,7.35794663299941,30,0.523598775598299
40,-0.441229832306397,-0.940109303410971,1.01899981445987,303.786159376039,13.5468186607411,20.4858599132818,7.33675085140744,30,0.523598775598299
41,-0.464422239358108,-0.952581641593376,1.01288500089777,310.931283839253,15.2126846399853,21.5048597277416,7.31536388608378,30,0.523598775598299
42,-0.487556886725483,-0.963419873486583,1.00589349723339,318.028646829546,16.9852498347943,22.5177447286394,7.29385051079432,30,0.523598775598299
43,-0.510580170216981,-0.97274824446201,0.998218528489484,325.076346559098,18.8641281693021,23.5236382258728,7.27227148695809,30,0.523598775598299
44,-0.533444540215609,-0.980689021038506,0.990030391921334,332.072589282402,20.8486987366127,24.5218567543623,7.25068298888066,30,0.523598775598299
45,-0.55610836681798,-0.987360674149111,0.98147699553438,339.01569007086,22.9381377155159,25.5118871462836,7.22913627099847,30,0.523598775598299
46,-0.57853567443108,-0.992876544012165,0.972684984695415,345.904071603676,25.1314482459755,26.493364141818,7.20767753672397,30,0.523598775598299
47,-0.600695786092233,-0.997343920787303,0.963761274952566,352.73626139507,27.4274879076025,27.4660491265134,7.18634796787817,30,0.523598775598299
48,-0.622562911637441,-1.00086347234642,0.954794832550369,359.510887844884,29.8249936074724,28.429810401466,7.1651838760844,30,0.523598775598299
49,-0.64411570736971,-1.00352895286388,0.945858572267042,366.226675454949,32.3226038161715,29.3846052340164,7.14421694172741,30,0.523598775598299
50,-0.665336828672296,-1.0054271316087,0.937011271055843,372.882439503401,34.9188781933888,30.3304638062834,7.12347451122033,-30,-0.523598775598299
51,-0.686212491439275,-1.00663788876753,0.928299422870394,379.47708041823,37.6123147188093,31.2674750773392,7.10297992867391,-30,-0.523598775598299
52,-0.704723600346112,-1.00407809689913,0.909472389047383,386.009578043019,40.4013644941418,32.1957745002096,7.08429288328871,-30,-0.523598775598299
53,-0.721134854957357,-0.997706496264791,0.881325151082775,392.479003822569,43.288185537972,33.105246889257,7.06714535689316,-30,-0.523598775598299
54,-0.735694462540655,-0.987551735676928,0.844724917411274,398.884565953592,46.2737034630658,33.9865720403398,7.05130250333486,-30,-0.523598775598299
55,-0.748645366410574,-0.973694232676675,0.800573940150553,405.225699931273,49.3576760424903,34.8312969577511,7.03654854050256,-30,-0.523598775598299
56,-0.76023393892366,-0.956251811030557,0.74978364077184,411.502133219709,52.5387765656835,35.6318708979016,7.02267531434452,-30,-0.523598775598299
57,-0.770716431120901,-0.935369636424392,0.69325990523331,417.713926421879,55.8146877037004,36.3816545386735,7.00947346878447,-30,-0.523598775598299
58,-0.780363487466217,-0.911214486728608,0.631898403032313,423.861493990387,59.182198846996,37.0749144439068,6.99672600823796,-30,-0.523598775598299
59,-0.789463003108188,-0.883973084003331,0.566588279197403,429.945607757106,62.6373015239027,37.7068128469391,6.98420396634749,-30,-0.523598775598299
60,-0.798321538840703,-0.85385405562539,0.498222442413998,435.967386463615,66.1752792306416,38.2734011261365,6.97166388501903,-30,-0.523598775598299
61,-0.807264432665682,-0.821093033297254,0.42771277422226,441.928274162632,69.7907895909352,38.7716235685505,6.95884684163846,-30,-0.523598775598299
62,-0.816634671076837,-0.785960389997268,0.356008775831394,447.830009939886,73.4779381071822,39.1993363427727,6.94547881881289,-30,-0.523598775598299
63,-0.826790518872074,-0.748771112742987,0.28411834786653,453.674590955558,77.2303438386855,39.5553451186041,6.93127227373046,-30,-0.523598775598299
64,-0.835282358897485,-0.712178283428518,0.220904972035695,459.464230374545,81.0411981695011,39.8394634664706,6.91896795533047,-30,-0.523598775598299
65,-0.842337105015171,-0.676098706900368,0.164800599229208,465.204938243001,84.9033725228856,40.0603684385063,6.90832644669087,-30,-0.523598775598299
66,-0.848145067133214,-0.640464255873521,0.114539326054446,470.90209271273,88.8107252382274,40.2251690377355,6.89914716879941,-30,-0.523598775598299
67,-0.852867385694772,-0.60521775188106,0.069092628937202,476.560537926033,92.7579051713952,40.33970836379,6.89126036778288,-30,-0.523598775598299
68,-0.856641819527154,-0.570310118935971,0.0276201284165817,482.1846659284,96.74019768571,40.4088009927272,6.88452094225313,-30,-0.523598775598299
69,-0.859587291963042,-0.535698421753508,-0.0105682091180318,487.778485205687,100.753402701328,40.4364211211438,6.87880363945098,-30,-0.523598775598299
70,-0.861807490109629,-0.501344528019088,-0.0460413375989119,493.345678062338,104.793737242796,40.4258529120257,6.87399928178216,-30,-0.523598775598299
71,-0.863393734902721,-0.467214216669796,-0.0792699603151571,498.889648703056,108.857756886055,40.3798115744268,6.87001177710083,-30,-0.523598775598299
72,-0.864427284365894,-0.433276608657625,-0.110644453351295,504.413563566901,112.942291913998,40.3005416141117,6.86675573072018,-30,-0.523598775598299
73,-0.864981192399004,-0.399503833324749,-0.14048901691575,509.92038519367,117.044395013181,40.1898971607604,6.86415452341849,-30,-0.523598775598299
74,-0.865121815908913,-0.36587086851788,-0.169072902858903,515.412900675435,121.16129809729,40.0494081438446,6.8621387533507,-30,-0.523598775598299
75,-0.864910041116439,-0.332355509756102,-0.196619359865907,520.893745556951,125.290376403037,39.8803352409857,6.8606449645392,-30,-0.523598775598299
76,-0.86440228333448,-0.298938435612453,-0.223312786257308,526.365423892093,129.429118425222,39.6837158811198,6.85961460305552,-30,-0.523598775598299
77,-0.863651301954548,-0.265603344588302,-0.249304468286231,531.830325034543,133.575100577342,39.4604030948625,6.85899315587615,-30,-0.523598775598299
78,-0.862706862772427,-0.232337144230459,-0.274717198369974,537.290737635075,137.725965709373,39.2110986265763,6.85872943793319,-30,-0.523598775598299
79,-0.861616272393616,-0.19913017680124,-0.299649005160684,542.748861231014,141.879404804174,38.9363814282063,6.85877500095833,-30,-0.523598775598299
80,-0.860424803757488,-0.16597646797884,-0.324176180265518,548.206815742504,146.033141322572,38.6367324230456,6.85908364396054,-30,-0.523598775598299
81,-0.859176027424879,-0.132873986215445,-0.348355750801239,553.666649132349,150.18491778452,38.3125562427801,6.85961101003631,-30,-0.523598775598299
82,-0.857912059911697,-0.0998249007999667,-0.37222751988639,559.130343439241,154.332484267393,37.9642004919789,6.86031425800776,-30,-0.523598775598299
83,-0.856673737822571,-0.0668358265933802,-0.395815776440867,564.59981935635,158.473588577935,37.5919729720925,6.86115180035393,-30,-0.523598775598299
84,-0.855500724699757,-0.0339180430288077,-0.419130759595448,570.076939497206,162.605967915571,37.1961571956516,6.86208310120651,-30,-0.523598775598299
85,-0.854431556249088,-0.0010876744822734,-0.442169950294383,575.563510467433,166.727341894784,36.7770264360562,6.86306852993946,-30,-0.523598775598299
86,-0.853503628858401,0.0316341812961341,-0.464919252247257,581.061283843409,170.835406835002,36.3348564857618,6.86406926716735,-30,-0.523598775598299
87,-0.852753136022606,0.0642213901690833,-0.487354115394623,586.571956146713,174.927831259481,35.8699372335145,6.86504726083096,-30,-0.523598775598299
88,-0.852214957378263,0.0966427972418118,-0.509440646796894,592.097167895671,179.002252570859,35.3825831181199,6.86596523051963,-30,-0.523598775598299
89,-0.851922505474357,0.128862333522932,-0.53113674578064,597.638501812178,183.056274891035,34.873142471323,6.86678671827937,-30,-0.523598775598299
90,-0.851907536103199,0.160839224444537,-0.552393291862757,603.197480262657,187.087468066937,34.3420057255424,6.8674761839002,-30,-0.523598775598299
91,-0.852199928913897,0.192528308686592,-0.573155405150934,608.77556201625,191.093367851839,33.7896124336796,6.86799914208648,-30,-0.523598775598299
92,-0.85282744604438,0.223880472498265,-0.593363789480199,614.374138410486,195.071477273863,33.2164570285287,6.86832233802387,-30,-0.523598775598299
93,-0.853815477536799,0.254843200614608,-0.612956158557151,619.994529024236,199.019269199467,32.6230932390485,6.86841395671522,-30,-0.523598775598299
94,-0.855186783233866,0.285361240044133,-0.631868735093907,625.637976968844,202.934190089767,32.0101370804913,6.86824386013795,-30,-0.523598775598299
95,-0.856961241573443,0.315377367658183,-0.650037802743963,631.305643920138,206.813664932002,31.3782683453974,6.8677838448734,-30,-0.523598775598299
96,-0.859155616090968,0.344833246943711,-0.667401281169015,636.998605025408,210.655103307636,30.7282305426534,6.86700791149204,-30,-0.523598775598299
97,-0.861783350403257,0.373670353860145,-0.68390028643279,642.717843829266,214.455906533393,30.0608292614844,6.86589253578236,-30,-0.523598775598299
98,-0.864854401906813,0.401830946888811,-0.699480632824435,648.464247369393,218.213475783178,29.3769289750516,6.86441693102506,-30,-0.523598775598299
99,-0.868375123339662,0.42925905250809,-0.714094228789652,654.238601596306,221.925221068765,28.6774483422272,6.86256329007228,-30,-0.523598775598299
100,-0.872348199733697,0.455901434857828,-0.727700319370742,660.041587269566,225.588570927322,27.9633541134376,6.86031699610116,-30,-0.523598775598299
101,-0.876772646180316,0.481708517572471,-0.740266530670437,665.873776475398,229.20098263619,27.2356537940668,6.85766679164267,-30,-0.523598775598299
102,-0.881643869350927,0.506635226832042,-0.751769678306636,671.735629897323,232.759952751978,26.4953872633964,6.85460489685581,-30,-0.523598775598299
103,-0.886953793002463,0.530641727609791,-0.762196311242939,677.62749495205,236.26302775387,25.7436175850897,6.85112706997974,-30,-0.523598775598299
104,-0.892691044932456,0.553694029719368,-0.771542974087012,683.549604878219,239.707814561698,24.9814212738468,6.84723260534627,-30,-0.523598775598299
105,-0.898841200215881,0.575764446256594,-0.779816184028885,689.502078836532,243.091990698857,24.2098782997598,6.84292426711319,-30,-0.523598775598299
106,-0.90538707323626,0.596831893938893,-0.787032131985315,695.484923047938,246.413313879082,23.4300621157309,6.83820815978896,-30,-0.523598775598299
107,-0.912309049168817,0.616882032140433,-0.793216130144117,701.498032963363,249.669630814151,22.6430299837456,6.83309353944846,-30,-0.523598775598299
108,-0.919585444293565,0.635907244558156,-0.798401838985282,707.541196426016,252.858885065932,21.8498138536015,6.82759257208329,-30,-0.523598775598299
109,-0.927192883868718,0.653906473921125,-0.802630315223693,713.614097757135,255.979123799244,21.0514120146162,6.82172004761402,-30,-0.523598775598299
110,-0.935106686281634,0.670884925564818,-0.805948927483992,719.716322669933,259.028503329844,20.2487816993925,6.81549305959017,-30,-0.523598775598299
111,-0.943301242766103,0.686853659753211,-0.808410188709303,725.847363895544,262.005293402252,19.4428327719085,6.80893066144939,-30,-0.523598775598299
112,-0.951750383039241,0.701829095208627,-0.810070553453633,732.006627389844,264.907880172739,18.6344225831992,6.80205351039567,-30,-0.523598775598299
113,-0.960427718647924,0.715832447406453,-0.810989224700745,738.19343898146,267.734767911602,17.8243520297456,6.7948835095369,-30,-0.523598775598299
114,-0.969306957489055,0.7288891249331,-0.811227009260245,744.407051318939,270.484579473821,17.0133628050448,6.78744345799203,-30,-0.523598775598299
115,-0.978362184745822,0.741028105805005,-0.810845253782748,750.646650978464,273.156055617133,16.2021357957846,6.77975671735954,-30,-0.523598775598299
116,-0.987568107242158,0.752281313371949,-0.809904885693579,756.91136560183,275.748053270367,15.3912905420018,6.77184690137098,-30,-0.523598775598299
117,-0.996900259859416,0.762683008566862,-0.808465575497432,763.200270946581,278.259542872252,14.5813856563083,6.76373759387029,-30,-0.523598775598299
118,-1.00633517410852,0.772269212093313,-0.806585029479564,769.512397745252,280.689604911836,13.7729200808108,6.75545209858157,-30,-0.523598775598299
119,-1.01585051016047,0.781077166905178,-0.80431841521471,775.846738287302,283.037425806531,12.9663350513313,6.74701322255463,-30,-0.523598775598299
120,-1.02542515458631,0.78914484822788,-0.801717916745333,782.202252654674,285.302293253305,12.1620166361165,6.7384430937794,-30,-0.523598775598299
121,-1.03503928674473,0.796510525542356,-0.798832411927042,788.577874559011,287.483591183677,11.3602987193712,6.72976301228356,-30,-0.523598775598299
122,-1.04467441719801,0.803212378495059,-0.795707261270884,794.972516744749,289.58079444466,10.5614663074442,6.7209933330918,-30,-0.523598775598299
123,-1.0543134017633,0.809288166657201,-0.792384195564049,801.385075937008,291.593463316889,9.76575904617329,6.7121533787312,-30,-0.523598775598299
124,-1.06394043485172,0.81477495144366,-0.788901288488905,807.814437326139,293.521237968546,8.97337485060924,6.70326137849899,-30,-0.523598775598299
125,-1.07354102564941,0.819708867297352,-0.785293000219084,814.259478591751,295.363832930286,8.18447356212033,6.69433443144124,-30,-0.523598775598299
126,-1.08310196048915,0.824124938409733,-0.781590278373215,820.719073477995,297.121031662812,7.39918056190125,6.68538848989154,-30,-0.523598775598299
127,-1.09261125448307,0.828056936732552,-0.77782070357953,827.192094938867,298.792681275578,6.61759028352803,6.67643836045446,-30,-0.523598775598299
128,-1.10205809516345,0.831537276785238,-0.774008668091525,833.677417877526,300.378687442734,5.8397695799485,6.66749771945599,-30,-0.523598775598299
129,-1.11143278053625,0.834596942721771,-0.770175577262548,840.173921507172,301.879009551132,5.06576091185698,6.65857914009243,-30,-0.523598775598299
130,-1.12072665360708,0.837265443239873,-0.766340065126873,846.680491363262,303.293656105115,4.29558533459443,6.6496941287644,-30,-0.523598775598299
131,-1.12993203510827,0.839570790148534,-0.762518216763395,853.196020997826,304.622680404079,3.52924526946755,6.64085316836161,-30,-0.523598775598299
132,-1.1390421558457,0.841539496719164,-0.758723791475272,859.719413386751,305.866176501318,2.76672705270416,6.63206576655069,-30,-0.523598775598299
133,-1.14805108980359,0.843196592299466,-0.754968442064808,866.249582080215,307.024275446472,2.00800326122889,6.62334050739853,-30,-0.523598775598299
