Time (s),Surge Velocity,Sway Velocity,Yaw Rate,Position X,Position Y,Yaw Angle,Speed U,Rudder Angle (deg),Rudder Angle (rad)
0,0,0,0,0,0,0,7.7175,0,0
1,0,-0.000881109093038606,0.00467568124486468,7.7175,0,0,7.71750005029823,0,0
2,-5.05061946273619e-08,-0.00194062972400084,0.00893315986668464,15.435,-0.000881109093038606,0.00467568124486468,7.71750019348757,0,0
3,-2.78632950096638e-07,-0.00315310473839392,0.0128247452746449,23.1525000821634,-0.00219194425960544,0.0136088411115493,7.71750036549205,0,0
4,-8.39532020045812e-07,-0.00449637621971385,0.0163960195595167,30.8700003347604,-0.00351199545570486,0.0264335863861942,7.71750047030922,0,0
5,-1.90513560301529e-06,-0.00595115988821997,0.0196867033367701,38.5875007483234,-0.00444787904127373,0.0428296059457109,7.71750038940975,0,0
6,-3.6560903363542e-06,-0.00750067436189825,0.0227314102240254,46.3050011355825,-0.00463007183311137,0.062516309282481,7.71749998888078,0,0
7,-6.27604792635639e-06,-0.00913031821971858,0.0255603042743371,54.022501069626,-0.00371006403465275,0.0852477195065063,7.71749912484287,0,0
8,-9.9476885145021e-06,-0.0108273887102223,0.0281996728380958,61.7399998360119,-0.00135787722244622,0.110808023780843,7.71749764754567,0,0
9,-1.48500112457183e-05,-0.0125808367382528,0.030672425720993,69.4574963955485,0.00274009952320731,0.139007696618939,7.71749540445279,0,0
10,-2.11565455607553e-05,-0.014381053452539,0.0329985301092313,77.1749893552194,0.00888299623494717,0.169680122339932,7.71749224255297,15,0.261799387799149
11,-2.90342261149153e-05,-0.0162196843589209,0.0351953895174194,84.892476945317,0.0173571070645734,0.202678652449164,7.71748801007968,15,0.261799387799149
12,-0.000349878090447976,-0.0235775738784306,0.0559458942610391,92.6099570013003,0.0284373247441585,0.237874041966583,7.71718613913638,15,0.261799387799149
13,-0.00162143225673303,-0.0370042944142834,0.0934229199979131,100.327138501398,0.0368990402578293,0.293819936227622,7.71596730099117,15,0.261799387799149
14,-0.00447668816450179,-0.056855675808664,0.145708104944202,108.04310537638,0.0394630510394428,0.387242856225535,7.7132328615691,15,0.261799387799149
15,-0.00734960615446956,-0.0782982168358136,0.193803225453346,115.756336790689,0.0347380010077509,0.532950961169738,7.7105479511171,15,0.261799387799149
16,-0.0102749586598202,-0.101074856904647,0.238209621955205,123.466881935921,0.0281600211313681,0.726754186623084,7.70788777581507,15,0.261799387799149
17,-0.0132886710921488,-0.124957246910168,0.279353800495296,131.174769001479,0.0248510691766886,0.964963808578289,7.70522462450171,15,0.261799387799149
18,-0.0164267794805584,-0.149741066310055,0.317596603343833,138.879992126469,0.0296581624069184,1.24431760907358,7.70252887918905,15,0.261799387799149
19,-0.0197246471921785,-0.175242124343425,0.353241525404352,146.582501060566,0.0471868501052728,1.56191421241742,7.6997698137308,15,0.261799387799149
20,-0.0232163635912232,-0.201293145711511,0.386542243525689,154.282192942582,0.0818294028352732,1.91515573782177,7.69691624015867,15,0.261799387799149
21,-0.0269342703272491,-0.22774115276306,0.417709426981456,161.978905761851,0.137788188787213,2.30169798134746,7.6939370464723,15,0.261799387799149
22,-0.0309085780374315,-0.254445366977892,0.446916895927779,169.672413188723,0.219094693668256,2.71940740832891,7.69080165736739,15,0.261799387799149
23,-0.035167048969685,-0.281275561592764,0.47430719024108,177.362420553332,0.329624622805205,3.16632430425669,7.6874804397823,15,0.261799387799149
24,-0.0397347304141389,-0.308110804384444,0.499996604271464,185.04856182191,0.4731095052471,3.64063149449777,7.68394506764834,15,0.261799387799149
25,-0.0446337306357295,-0.33483853504974,0.524079734568442,192.730397471719,0.653145201622832,4.14062809876924,7.68016885440042,15,0.261799387799149
26,-0.0498830337944867,-0.361353925608926,0.546633578476735,200.40741320242,0.873197701401479,4.66470783333768,7.67612705731189,15,0.261799387799149
27,-0.0554983535383677,-0.387559475202847,0.567721212546863,208.079019446355,1.1366065813237,5.21134141181441,7.67179715433094,15,0.261799387799149
28,-0.0614920268684151,-0.413364792979243,0.587395071726444,215.744551654665,1.44658648479901,5.77906262436128,7.66715909165378,15,0.261799387799149
29,-0.0678729507515952,-0.438686524882105,0.605699843900748,223.403271342528,1.80622697121225,6.36645769608772,7.66219549866133,15,0.261799387799149
30,-0.0746465639957831,-0.463448382433486,0.622674989953196,231.05436787635,2.21849107327639,6.97215753998847,7.65689186598725,15,0.261799387799149
31,-0.0818148762848845,-0.487581234319882,0.63835689732929,238.696960980191,2.68621288860897,7.59483252994167,7.65123668230079,15,0.261799387799149
32,-0.0893765451707518,-0.511023224959187,0.652780675109388,246.330103929269,3.21209451743126,8.23318942727095,7.64522152580053,15,0.261799387799149
33,-0.0973270003982299,-0.533719888315531,0.665981600621636,253.952787386442,3.79870264070831,8.88597010238034,7.63884110733057,15,0.261799387799149
34,-0.105658613361229,-0.555624230024025,0.677996231273597,261.563943824499,4.44846501147719,9.55195170300198,7.6320932633411,15,0.261799387799149
35,-0.114360907902895,-0.576696756260202,0.688863200032602,269.162452463961,5.16366710624374,10.2299479342756,7.62497889849252,15,0.261799387799149
36,-0.123420807217693,-0.596905433532162,0.698623718245225,276.747144644221,5.9464491532796,10.9188111343082,7.61750187941095,15,0.261799387799149
37,-0.132822910400599,-0.616225569424638,0.707321814645992,284.316809535997,6.79880372095745,11.6174348525534,7.60966888280343,15,0.261799387799149
38,-0.142549791302185,-0.63463960999818,0.715004343903435,291.870200096121,7.72257401282601,12.3247566671994,7.60148920270428,15,0.261799387799149
39,-0.152582311838604,-0.652136854767767,0.721720801430479,299.406039162034,8.71945297813866,13.0397610111028,7.59297452293919,15,0.261799387799149
40,-0.162899941787922,-0.668713094716696,0.727522983130842,306.923025583294,9.79098330837084,13.7614818125333,7.5841386618774,15,0.261799387799149
41,-0.173481077362319,-0.684370182467151,0.732464529111126,314.41984029081,10.9385583533012,14.4890047956642,7.57499729714576,15,0.261799387799149
42,-0.184303351435122,-0.699115546425512,0.736600389168022,321.895152211227,12.1634239558226,15.2214693247753,7.56556767818536,-15,-0.261799387799149
43,-0.195343929157973,-0.712961662421497,0.7399862452127,329.347623943252,13.4666811739405,15.9580697139433,7.55586833436028,-15,-0.261799387799149
44,-0.205446123572175,-0.720967181481789,0.726008053712812,336.775917124328,14.8492898322993,16.698055959156,7.54657187861668,-15,-0.261799387799149
45,-0.214920632219589,-0.7228413805757,0.696403181332565,344.17835862228,16.3171477915453,17.4240640128688,7.53732026859128,-15,-0.261799387799149
46,-0.224063032198193,-0.718465856542969,0.652992291690035,351.553128235959,17.8740581860359,18.1204671942014,7.52780119141285,-15,-0.261799387799149
47,-0.233169720917011,-0.70786385805673,0.597625420065556,358.898380226208,19.5218033050325,18.7734594858914,7.51773043996268,-15,-0.261799387799149
48,-0.242550631433362,-0.691172576780508,0.532139039200559,366.212342256984,21.2602596261128,19.371084905957,7.50683605745644,-15,-0.261799387799149
49,-0.252538229498668,-0.668621289299489,0.458329383983777,373.493387624598,23.0875433884976,19.9032239451575,7.49484547296013,-15,-0.261799387799149
50,-0.261239402491365,-0.645069994642064,0.393397230148397,380.740079950353,25.0001748217334,20.3615533291413,7.48411233186323,-15,-0.261799387799149
51,-0.268791031656835,-0.620751073693941,0.335967072296427,387.95488876738,26.9897655157452,20.7549505592897,7.47452989763022,-15,-0.261799387799149
52,-0.275316058232919,-0.595848784516432,0.284874156536903,395.14018744194,29.0489110054874,21.0909176315861,7.46599876755317,-15,-0.261799387799149
53,-0.28092427513278,-0.570509664935225,0.239134099595958,402.298239401664,31.1710395923084,21.375791788123,7.45842743408213,-15,-0.261799387799149
54,-0.28571347920113,-0.544850413939946,0.197915831814986,409.431193607924,33.3502835164395,21.614925887719,7.45173220562161,-15,-0.261799387799149
55,-0.28977075533311,-0.518963941252023,0.160518017257365,416.541085808181,35.5813697462885,21.812841719534,7.44583677664234,-15,-0.261799387799149
56,-0.293173760621483,-0.492924071849953,0.126348800957666,423.629843227217,37.8595276772647,21.9733597367913,7.44067162622659,-15,-0.261799387799149
57,-0.295991936935861,-0.466789251279597,0.0949085860581353,430.699291137631,40.1804112355843,22.099708537749,7.43617335295757,-15,-0.261799387799149
58,-0.298287617127874,-0.440605499444634,0.0657754873460333,437.751160287841,42.5400331594417,22.1946171238071,7.43228400885649,-15,-0.261799387799149
59,-0.300117011974475,-0.4144087920206,0.0385931024158106,444.787094532479,44.9347095245145,22.2603926111532,7.42895046678563,-15,-0.261799387799149
60,-0.301531077551258,-0.388227000471564,0.01306026302498,451.808658257617,47.3610128632941,22.298985713569,7.42612383835745,-15,-0.261799387799149
61,-0.302576269516442,-0.362081487547663,-0.0110775371937586,458.817343358649,49.8157324841879,22.312045976594,7.42375894897679,-15,-0.261799387799149
62,-0.303295194044735,-0.335988430772392,-0.0340353049126998,465.81457563771,52.2958408216138,22.3009684394002,7.42181387062914,-15,-0.261799387799149
63,-0.303727166309109,-0.309959928825488,-0.055994528366838,472.801720558375,54.7984648420953,22.2669331344875,7.42024950975711,-15,-0.261799387799149
64,-0.303908687365153,-0.284004932858114,-0.0771081726235746,479.780088340277,57.3208616957976,22.2109386061207,7.41902924597704,-15,-0.261799387799149
65,-0.303873849603539,-0.258130035244699,-0.0975048533415699,486.750938404,59.8603979412084,22.1338304334971,7.41811861680155,-15,-0.261799387799149
66,-0.303654679940997,-0.232340141115653,-0.117292327073587,493.715483192762,62.4145317862269,22.0363255801555,7.41748504352617,-15,-0.261799387799149
67,-0.303281428821438,-0.206639042558149,-0.136560413625744,500.674891406142,64.980797885148,21.9190332530819,7.41709759374369,-15,-0.261799387799149
68,-0.302782812013242,-0.181029911151267,-0.155383446974131,507.630290685067,67.5567943109699,21.7824728394562,7.41692677640529,-15,-0.261799387799149
69,-0.302186211179562,-0.155515721189474,-0.173822335334157,514.582769788261,70.1401713887909,21.6270893924821,7.41694436585631,-15,-0.261799387799149
70,-0.301517838296948,-0.130099613313728,-0.191926297742345,521.53338029964,72.7286221310893,21.4532670571479,7.41712325177911,-15,-0.261799387799149
71,-0.300802868215494,-0.10478520614884,-0.209734333532235,528.483137904489,75.3198740613206,21.2613407594056,7.41743731244479,-15,-0.261799387799149
72,-0.300065542991823,-0.0795768618231607,-0.2272764719924,535.433023270198,77.9116822501249,21.0516064258733,7.41786130909373,-15,-0.261799387799149
73,-0.299329251079466,-0.0544799098401805,-0.244574841957055,542.383982565285,80.5018234198307,20.8243299538809,7.41837079962416,-15,-0.261799387799149
74,-0.29861658402116,-0.0295008326232861,-0.261644594814529,549.336927648482,83.0880909989421,20.5797551119239,7.41894207006709,-15,-0.261799387799149
75,-0.297949372944989,-0.00464741512468879,-0.278494709183628,556.292735958077,85.6682910297866,20.3181105171093,7.41955208256535,-15,-0.261799387799149
76,-0.297348706910887,0.0200711398502283,-0.295128701097889,563.252250130426,88.240238850171,20.0396158079257,7.42017843875651,-15,-0.261799387799149
77,-0.296834934976065,0.0446441295196003,-0.311545259781258,570.216277375697,90.8017564843295,19.7444871068278,7.42079935758724,-15,-0.261799387799149
78,-0.296427653737263,0.0690593015272083,-0.32773882585354,577.18558863846,93.350670690083,19.4329418470466,7.42139366666349,-15,-0.261799387799149
79,-0.29614568205453,0.0933028364510115,-0.343700125953991,584.160917570582,95.8848116183468,19.105203021193,7.42194080627013,-15,-0.261799387799149
80,-0.296007024655314,0.117359362110699,-0.359416675223802,591.142959344141,98.4020120482003,18.761502895239,7.4224208451802,-15,-0.261799387799149
81,-0.296028826348632,0.141211999339862,-0.374873256771681,598.132369332528,100.900107165923,18.4020862200152,7.42281450732105,-15,-0.261799387799149
82,-0.296227318636196,0.164842438730226,-0.390052385109237,605.129761688575,103.376934859898,18.0272129632436,7.42310320827908,-15,-0.261799387799149
83,-0.296617760579445,0.188231047576103,-0.404934758550838,612.135707849322,105.830336505262,17.6371605781343,7.42326910051219,-15,-0.261799387799149
84,-0.297214375857021,0.211357005860572,-0.419499703708759,619.150734997873,108.258158212825,17.2322258195835,7.42329512600633,-15,-0.261799387799149
85,-0.298030288014854,0.234198469648514,-0.433725613476631,626.175324513476,110.658252516196,16.8127261158747,7.42316507496975,-15,-0.261799387799149
86,-0.299077455959396,0.256732759708221,-0.447590378293126,633.209910441562,113.028480469498,16.3790005023981,7.42286364901291,-15,-0.261799387799149
87,-0.300366611763164,0.278936572599422,-0.461071809034701,640.254878015756,115.366714125571,15.931410124105,7.42237652712601,-15,-0.261799387799149
88,-0.301907202831275,0.300786210872002,-0.474148048629605,647.310562263778,117.670839361458,15.4703383150703,7.42169043264885,-15,-0.261799387799149
89,-0.303707340410493,0.322257828449588,-0.486797968447865,654.377246728634,119.938759014408,14.9961902664407,7.42079319934064,-15,-0.261799387799149
90,-0.305773756303235,0.34332768675985,-0.499001544736162,661.455162335414,122.168396287748,14.5093922979928,7.4196738346102,-15,-0.261799387799149
91,-0.3081117694755,0.363972416752375,-0.510740209860896,668.544486432345,124.357698382178,14.0103907532566,7.41832257796812,-15,-0.261799387799149
92,-0.310725264020404,0.384169281645623,-0.521997172918213,675.645342032459,126.504640304339,13.4996505433957,7.41673095281915,-15,-0.261799387799149
93,-0.313616679661871,0.403896435092232,-0.532757704375511,682.757797279324,128.607228801369,12.9776533704775,7.41489180982847,-15,-0.261799387799149
94,-0.316787015663196,0.423133169464837,-0.543009379820498,689.881865156759,130.663506367546,12.444895666102,7.4127993602709,-15,-0.261799387799149
95,-0.320235848652751,0.441860149152014,-0.552742278591396,697.017503458344,132.671555267492,11.9018862862815,7.41044919800519,-15,-0.261799387799149
96,-0.323961364506584,0.460059624115617,-0.561949134009693,704.164615028044,134.629501519686,11.3491440076901,7.40783830899914,-15,-0.261799387799149
97,-0.327960404049273,0.477715619486055,-0.570625433085482,711.323048278307,136.535518784512,10.7871948736804,7.40496506765728,-15,-0.261799387799149
98,-0.332228521965142,0.494814097641085,-0.578769464853396,718.492597986933,138.387832102707,10.2165694405949,7.40182921955779,-15,-0.261799387799149
99,-0.336760057966736,0.511343089997832,-0.586382317855571,725.6730063688,140.184721432942,9.63779997574154,7.39843185057575,-15,-0.261799387799149
100,-0.341548218959912,0.527292796612424,-0.593467828644596,732.863964413457,141.924524941271,9.05141765788597,7.39477534273948,-15,-0.261799387799149
101,-0.346585170686868,0.542655652587796,-0.60003248446362,740.065113474785,143.60564200029,8.45794982924137,7.39086331752074,-15,-0.261799387799149
102,-0.351862137128774,0.557426361197871,-0.60608528440874,747.2760470945,145.226535861818,7.85791734477775,7.38670056758229,-15,-0.261799387799149
103,-0.357369505814243,0.571601894506553,-0.611637564337132,754.496313037412,146.785735973653,7.25183206036901,7.38229297828571,-15,-0.261799387799149
104,-0.363096937110967,0.585181463057937,-0.616702791513857,761.725415513135,148.281839918148,6.64019449603188,7.37764744048794,-15,-0.261799387799149
105,-0.36903347557431,0.598166456910572,-0.621296335466924,768.96281755647,149.713514957839,6.02349170451802,7.37277175631919,-15,-0.261799387799149
106,-0.375167661484295,0.61056036086188,-0.625435221736873,776.207943536964,151.079499180863,5.4021953690511,7.36767453973568,-15,-0.261799387799149
107,-0.381487640814317,0.622368647145051,-0.629137875171556,783.460181767273,152.37860224618,4.77676014731423,7.36236511367606,-15,-0.261799387799149
108,-0.387981272032085,0.633598649174395,-0.632423859150748,790.718887179791,153.609705735473,4.14762227214267,7.35685340562581,-15,-0.261799387799149
109,-0.394636228325568,0.644259420068312,-0.63531361666076,797.983384041624,154.771763124884,3.51519841299192,7.35114984331354,-15,-0.261799387799149
110,-0.401440094063226,0.654361579700477,-0.637828218516254,805.252968679216,155.863799395224,2.87988479633116,7.34526525213649,-15,-0.261799387799149
111,-0.408380454527795,0.663917153933702,-0.639989123288566,812.526912185749,156.884910303995,2.24205657781491,7.33921075574828,-15,-0.261799387799149
112,-0.41544497819638,0.67293940949497,-0.641817952691659,819.804463086693,157.834261346267,1.60206745452634,7.33299768105097,-15,-0.261799387799149
113,-0.422621491067573,0.681442687674669,-0.643336285340514,827.084849941475,158.711086434305,0.960249501834683,7.32663746862566,-15,-0.261799387799149
114,-0.429898042751481,0.689442239698859,-0.644565470970387,834.367283862079,159.514686327724,0.316913216494169,7.32014158942117,-15,-0.261799387799149
115,-0.437262964234868,0.696954066250979,-0.645526466420797,841.650960932334,160.244426846959,-0.327652254476218,7.31352146830718,-15,-0.261799387799149
116,-0.444704917407207,0.703994763227664,-0.646239693970307,848.935064514637,160.899736903094,-0.973178720897015,7.3067884148946,-15,-0.261799387799149
117,-0.452212936581543,0.710581375418931,-0.646724921975082,856.218767433777,161.480106376574,-1.61941841486732,7.29995356183639,-15,-0.261799387799149
118,-0.459776462365825,0.716731259419881,-0.647001167226601,863.50123403032,161.985083876274,-2.2661433368424,7.29302781065304,-15,-0.261799387799149
119,-0.467385368335757,0.722461956720335,-0.64708661800654,870.781622078615,162.414274408791,-2.913144504069,7.28602178497842,-15,-0.261799387799149
120,-0.475029981030647,0.727791077588533,-0.646998576478886,878.059084566864,162.76733698585,-3.56023112207554,7.27894579099799,-15,-0.261799387799149
121,-0.482701093840978,0.732736196070701,-0.64675341881593,885.332771338802,163.043982195482,-4.20722969855443,7.27180978475042,-15,-0.261799387799149
122,-0.490389975383045,0.737314756172837,-0.646366571297769,892.601830598401,163.243969760183,-4.85398311737036,7.26462334588581,-15,-0.261799387799149
123,-0.498088372964818,0.741543989075474,-0.645852500544027,899.865410280537,163.367106102708,-5.50034968866813,7.25739565741766,-15,-0.261799387799149
124,-0.505788511740976,0.745440841055642,-0.645224716020528,907.122659291907,163.413241937633,-6.14620218921216,7.25013549096849,-15,-0.261799387799149
125,-0.513483090136796,0.749021911650818,-0.644495783000647,914.372728627476,163.382269904265,-6.79142690523269,7.24285119698921,-15,-0.261799387799149
126,-0.521165272092957,0.752303401494299,-0.643677344239876,921.61477236854,163.274122254074,-7.43592268823333,7.23555069942716,-15,-0.261799387799149
127,-0.528828676648739,0.755301069176767,-0.642780148731938,928.84794856909,163.088768603519,-8.07960003247321,7.22824149432435,-15,-0.261799387799149
128,-0.53646736534196,0.758030196440876,-0.641814086046004,936.071420037501,162.826213761013,-8.72238018120515,7.22093065184398,-15,-0.261799387799149
129,-0.544075827861936,0.760505560990688,-0.640788224888981,943.284355020812,162.486495634806,-9.36419426725115,7.21362482124711,-15,-0.261799387799149
130,-0.55164896634866,0.762741416191838,-0.639710854687284,950.485927798911,162.069683226814,-10.0049824921401,7.20633023837073,-15,-0.261799387799149
131,-0.559182078688314,0.764751476947875,-0.638589529133415,957.675319195889,161.575874715836,-10.6446933468274,7.19905273519135,-15,-0.261799387799149
132,-0.566670841113329,0.766548911059919,-0.637431110789549,964.851717015659,161.005195632233,-11.2832828759608,7.19179775109332,-15,-0.261799387799149
133,-0.574111290375198,0.768146335407769,-0.636241815979857,972.014316408714,160.357797124936,-11.9207139867504,7.18457034549704,-15,-0.261799387799149
